,RelativeTimeMilliseconds,NBP (Mean),Minute Volume
8,-0.5029280867512497,0.6680773834807122,-0.42649257153338227
9,-0.502789352012071,0.6680773834807122,-0.42649257153338227
10,-0.5026506172728923,0.6680773834807122,-0.42649257153338227
11,-0.5025118825337136,0.6680773834807122,-0.42649257153338227
12,-0.5023731477945349,0.6680773834807122,-0.42649257153338227
13,-0.5022344130553562,0.6680773834807122,-0.31711757153338227
14,-0.5020956783161775,0.6680773834807122,-0.31711757153338227
15,-0.5019569435769988,0.6680773834807122,-0.31711757153338227
16,-0.5018182088378201,0.6680773834807122,-0.31711757153338227
17,-0.5016794740986414,0.6680773834807122,-0.31711757153338227
18,-0.5015407393594628,0.6680773834807122,-0.31711757153338227
19,-0.5014020046202841,0.6680773834807122,-0.31711757153338227
20,-0.5012632698811054,0.6680773834807122,-0.31711757153338227
21,-0.5011245351419267,0.6680773834807122,-0.31711757153338227
22,-0.5009858004027481,0.6680773834807122,-0.31711757153338227
23,-0.5008470656635694,0.6680773834807122,-0.19211757153338227
24,-0.5007083309243907,0.6680773834807122,-0.19211757153338227
25,-0.500569596185212,0.6680773834807122,-0.19211757153338227
26,-0.5004308614460333,0.6680773834807122,-0.19211757153338227
27,-0.5002921267068546,0.6680773834807122,-0.19211757153338227
28,-0.5001533919676759,0.6680773834807122,-0.19211757153338227
29,-0.5000146572284973,0.6680773834807122,-0.19211757153338227
30,-0.4998759224893185,0.6680773834807122,-0.19211757153338227
31,-0.4997371877501398,0.6680773834807122,-0.19211757153338227
32,-0.4995984530109611,0.6680773834807122,-0.19211757153338227
33,-0.4994597182717824,0.6680773834807122,-0.20774257153338227
34,-0.49932098353260373,0.6680773834807122,-0.20774257153338227
35,-0.49918224879342504,0.6680773834807122,-0.20774257153338227
36,-0.49904351405424635,0.6680773834807122,-0.20774257153338227
37,-0.49890477931506766,0.6680773834807122,-0.20774257153338227
38,-0.49876604457588897,0.6680773834807122,-0.20774257153338227
39,-0.49862730983671033,0.6680773834807122,-0.20774257153338227
40,-0.49848857509753164,0.6680773834807122,-0.20774257153338227
41,-0.4943265329221709,0.6680773834807122,-0.39524257153338227
42,-0.4941877981829922,0.6680773834807122,-0.39524257153338227
43,-0.4940490634438135,0.6680773834807122,-0.39524257153338227
44,-0.4939103287046348,0.6680773834807122,-0.39524257153338227
45,-0.49377159396545617,0.6680773834807122,-0.5202425715333823
46,-0.4936328592262775,0.6680773834807122,-0.5202425715333823
47,-0.4934941244870988,0.6680773834807122,-0.5202425715333823
48,-0.4933553897479201,0.6680773834807122,-0.5202425715333823
49,-0.4932166550087414,0.6680773834807122,-0.5202425715333823
50,-0.4930779202695627,0.6680773834807122,-0.5202425715333823
51,-0.492939185530384,0.6680773834807122,-0.5202425715333823
52,-0.4928004507912053,0.6680773834807122,-0.5202425715333823
53,-0.49266171605202663,0.6680773834807122,-0.5202425715333823
54,-0.49252298131284794,0.6680773834807122,-0.5202425715333823
55,-0.49238424657366925,0.6680773834807122,-0.6139925715333823
56,-0.49224551183449056,0.6680773834807122,-0.6139925715333823
57,-0.4900257560076315,0.6680773834807122,-0.4889925715333823
58,-0.4898870212684528,0.6680773834807122,-0.4889925715333823
59,-0.4897482865292741,0.6680773834807122,-0.4889925715333823
60,-0.4896095517900954,0.6680773834807122,-0.44211757153338227
61,-0.4894708170509167,0.6680773834807122,-0.44211757153338227
62,-0.489332082311738,0.6680773834807122,-0.44211757153338227
63,-0.48919334757255933,0.6680773834807122,-0.44211757153338227
64,-0.4890546128333807,0.6680773834807122,-0.44211757153338227
65,-0.488915878094202,0.6680773834807122,-0.44211757153338227
66,-0.4887771433550233,0.6680773834807122,-0.44211757153338227
67,-0.4886384086158446,0.6680773834807122,-0.44211757153338227
68,-0.48849967387666593,0.6680773834807122,-0.44211757153338227
69,-0.48836093913748724,0.6680773834807122,-0.44211757153338227
70,-0.48822220439830855,0.6680773834807122,-0.44211757153338227
71,-0.48808346965912985,0.6680773834807122,-0.30149257153338227
72,-0.48794473491995116,0.6680773834807122,-0.30149257153338227
73,-0.48780600018077247,0.6680773834807122,-0.30149257153338227
74,-0.4876672654415938,0.6680773834807122,-0.30149257153338227
75,-0.4875285307024151,0.6680773834807122,-0.30149257153338227
76,-0.4873897959632364,0.6680773834807122,-0.30149257153338227
77,-0.4872510612240577,0.6680773834807122,-0.30149257153338227
78,-0.487112326484879,0.6680773834807122,-0.30149257153338227
79,-0.4869735917457003,0.6680773834807122,-0.30149257153338227
80,-0.4868348570065216,0.6680773834807122,-0.30149257153338227
81,-0.48669612226734293,0.6680773834807122,-0.19211757153338227
82,-0.48655738752816424,0.6680773834807122,-0.19211757153338227
83,-0.48641865278898555,0.6680773834807122,-0.19211757153338227
84,-0.48627991804980686,0.6680773834807122,-0.19211757153338227
85,-0.48614118331062817,0.6680773834807122,-0.19211757153338227
86,-0.4860024485714495,0.6680773834807122,-0.19211757153338227
87,-0.4858637138322708,0.6680773834807122,-0.19211757153338227
88,-0.4857249790930921,0.6680773834807122,-0.19211757153338227
89,-0.4855862443539134,0.6680773834807122,-0.19211757153338227
90,-0.4854475096147347,0.6680773834807122,-0.19211757153338227
91,-0.485308774875556,0.6680773834807122,-0.12961757153338227
92,-0.4851700401363773,0.6680773834807122,-0.12961757153338227
93,-0.48503130539719863,0.6680773834807122,-0.12961757153338227
94,-0.48489257065801994,0.6680773834807122,-0.12961757153338227
95,-0.48475383591884125,0.6680773834807122,-0.12961757153338227
96,-0.48461510117966256,0.6680773834807122,-0.12961757153338227
97,-0.48447636644048386,0.6680773834807122,-0.12961757153338227
98,-0.48433763170130517,0.6680773834807122,-0.12961757153338227
99,-0.48419889696212653,0.6680773834807122,-0.12961757153338227
100,-0.48406016222294784,0.6680773834807122,-0.12961757153338227
101,-0.48392142748376915,0.6680773834807122,-0.12961757153338227
102,-0.48378269274459046,0.6680773834807122,-0.0671175715333823
103,-0.48364395800541177,0.6680773834807122,-0.0671175715333823
104,-0.4835052232662331,0.6680773834807122,-0.0671175715333823
105,-0.4833664885270544,0.6680773834807122,-0.0671175715333823
106,-0.4832277537878757,0.6680773834807122,-0.0671175715333823
107,-0.483089019048697,0.6680773834807122,-0.0671175715333823
108,-0.4829502843095183,0.6680773834807122,-0.0671175715333823
109,-0.4828115495703396,0.6680773834807122,-0.0671175715333823
110,-0.4826728148311609,0.6680773834807122,-0.0671175715333823
111,-0.48253408009198223,0.6680773834807122,-0.0671175715333823
112,-0.48239534535280354,0.6680773834807122,-0.0671175715333823
113,-0.48225661061362485,0.6680773834807122,-0.0671175715333823
114,-0.48211787587444616,0.6680773834807122,-0.0671175715333823
115,-0.48197914113526746,0.6680773834807122,-0.0671175715333823
116,-0.48184040639608877,0.6680773834807122,-0.0671175715333823
117,-0.4817016716569101,0.6680773834807122,-0.0671175715333823
118,-0.4815629369177314,0.6680773834807122,-0.0671175715333823
119,-0.4814242021785527,0.6680773834807122,-0.0671175715333823
120,-0.481285467439374,0.6680773834807122,-0.0671175715333823
121,-0.4811467327001953,0.6680773834807122,-0.0671175715333823
122,-0.4810079979610166,0.6680773834807122,-0.0671175715333823
123,-0.48086926322183793,0.6680773834807122,-0.0671175715333823
124,-0.48073052848265924,0.6680773834807122,-0.0671175715333823
125,-0.48059179374348054,0.6680773834807122,-0.0671175715333823
126,-0.48045305900430185,0.6680773834807122,-0.0671175715333823
127,-0.48031432426512316,0.6680773834807122,-0.0671175715333823
128,-0.48017558952594447,0.6680773834807122,-0.0671175715333823
129,-0.4800368547867658,0.6680773834807122,-0.0671175715333823
130,-0.4798981200475871,0.6680773834807122,-0.0671175715333823
131,-0.4797593853084084,0.6680773834807122,-0.0671175715333823
132,-0.4796206505692297,0.6680773834807122,-0.0671175715333823
133,-0.47948191583005106,0.6680773834807122,-0.2233675715333823
134,-0.4793431810908724,0.6680773834807122,-0.2233675715333823
135,-0.4792044463516937,0.6680773834807122,-0.2233675715333823
136,-0.479065711612515,0.6680773834807122,-0.2233675715333823
137,-0.4789269768733363,0.6680773834807122,-0.2233675715333823
138,-0.4787882421341576,0.6680773834807122,-0.2233675715333823
139,-0.4786495073949789,0.6680773834807122,-0.2233675715333823
140,-0.4785107726558002,0.6680773834807122,-0.2233675715333823
141,-0.47837203791662153,0.6680773834807122,-0.2233675715333823
142,-0.47823330317744284,0.6680773834807122,-0.2233675715333823
143,-0.47809456843826414,0.6680773834807122,-0.39524257153338227
144,-0.47795583369908545,0.6680773834807122,-0.39524257153338227
145,-0.47781709895990676,0.6680773834807122,-0.39524257153338227
146,-0.47767836422072807,0.6680773834807122,-0.39524257153338227
147,-0.4775396294815494,0.6680773834807122,-0.39524257153338227
148,-0.4774008947423707,0.6680773834807122,-0.39524257153338227
149,-0.477262160003192,0.6680773834807122,-0.39524257153338227
150,-0.4771234252640133,0.6680773834807122,-0.39524257153338227
151,-0.4769846905248346,0.6680773834807122,-0.39524257153338227
152,-0.4768459557856559,0.6680773834807122,-0.39524257153338227
153,-0.4767072210464772,0.6680773834807122,-0.47336757153338227
154,-0.47656848630729853,0.6680773834807122,-0.47336757153338227
155,-0.47642975156811984,0.6680773834807122,-0.47336757153338227
156,-0.47629101682894115,0.6680773834807122,-0.47336757153338227
157,-0.47615228208976246,0.6680773834807122,-0.47336757153338227
158,-0.47601354735058377,0.6680773834807122,-0.47336757153338227
159,-0.4758748126114051,0.6680773834807122,-0.47336757153338227
160,-0.4757360778722264,0.6680773834807122,-0.47336757153338227
161,-0.4755973431330477,0.6680773834807122,-0.47336757153338227
162,-0.475458608393869,0.6680773834807122,-0.47336757153338227
163,-0.4753198736546903,0.6680773834807122,-0.45774257153338227
164,-0.4751811389155116,0.6680773834807122,-0.45774257153338227
165,-0.4750424041763329,0.6680773834807122,-0.45774257153338227
166,-0.47490366943715423,0.6680773834807122,-0.45774257153338227
167,-0.47476493469797554,0.6680773834807122,-0.45774257153338227
168,-0.4746261999587969,0.6680773834807122,-0.45774257153338227
169,-0.4744874652196182,0.6680773834807122,-0.45774257153338227
170,-0.4743487304804395,0.6680773834807122,-0.45774257153338227
171,-0.4742099957412608,0.6680773834807122,-0.45774257153338227
172,-0.47407126100208213,0.6680773834807122,-0.45774257153338227
173,-0.47393252626290344,0.6680773834807122,-0.44211757153338227
174,-0.47379379152372475,0.6680773834807122,-0.44211757153338227
175,-0.47365505678454606,0.6680773834807122,-0.44211757153338227
176,-0.47351632204536737,0.6680773834807122,-0.44211757153338227
177,-0.4733775873061887,0.6680773834807122,-0.44211757153338227
178,-0.47323885256701,0.6680773834807122,-0.44211757153338227
179,-0.4731001178278313,0.6680773834807122,-0.44211757153338227
180,-0.4729613830886526,0.6680773834807122,-0.44211757153338227
181,-0.4728226483494739,0.6680773834807122,-0.44211757153338227
182,-0.4726839136102952,0.6680773834807122,-0.44211757153338227
183,-0.4725451788711165,0.6680773834807122,-0.4108675715333823
184,-0.47240644413193783,0.6680773834807122,-0.4108675715333823
185,-0.47226770939275914,0.6680773834807122,-0.4108675715333823
186,-0.47212897465358045,0.6680773834807122,-0.4108675715333823
187,-0.47199023991440175,0.6680773834807122,-0.4108675715333823
188,-0.47185150517522306,0.6680773834807122,-0.4108675715333823
189,-0.47171277043604437,0.6680773834807122,-0.4108675715333823
190,-0.4715740356968657,0.6680773834807122,-0.4108675715333823
191,-0.471435300957687,0.6680773834807122,-0.4108675715333823
192,-0.4712965662185083,0.6680773834807122,-0.4108675715333823
193,-0.4711578314793296,0.6680773834807122,-0.4108675715333823
206,-0.46935427987000666,-0.06876472178244566,-0.4108675715333823
207,-0.46921554513082797,-0.06876472178244566,-0.4108675715333823
208,-0.4690768103916493,-0.06876472178244566,-0.4108675715333823
209,-0.4689380756524706,-0.06876472178244566,-0.4108675715333823
210,-0.4687993409132919,-0.06876472178244566,-0.4108675715333823
211,-0.4686606061741132,-0.06876472178244566,-0.4108675715333823
212,-0.4685218714349345,-0.06876472178244566,-0.4108675715333823
213,-0.4683831366957558,-0.06876472178244566,-0.4108675715333823
214,-0.4682444019565771,-0.06876472178244566,-0.34836757153338227
215,-0.46810566721739844,-0.06876472178244566,-0.34836757153338227
216,-0.46796693247821974,-0.06876472178244566,-0.34836757153338227
217,-0.46782819773904105,-0.06876472178244566,-0.34836757153338227
218,-0.46768946299986236,-0.06876472178244566,-0.34836757153338227
219,-0.46755072826068367,-0.06876472178244566,-0.34836757153338227
220,-0.467411993521505,-0.06876472178244566,-0.34836757153338227
221,-0.4672732587823263,-0.06876472178244566,-0.34836757153338227
222,-0.4671345240431476,-0.06876472178244566,-0.34836757153338227
223,-0.4669957893039689,-0.06876472178244566,-0.34836757153338227
224,-0.4668570545647902,-0.06876472178244566,-0.31711757153338227
225,-0.4667183198256115,-0.06876472178244566,-0.31711757153338227
226,-0.4665795850864328,-0.06876472178244566,-0.31711757153338227
227,-0.46644085034725413,-0.06876472178244566,-0.31711757153338227
228,-0.46630211560807544,-0.06876472178244566,-0.31711757153338227
229,-0.46616338086889675,-0.06876472178244566,-0.31711757153338227
230,-0.46602464612971806,-0.06876472178244566,-0.31711757153338227
231,-0.46588591139053936,-0.06876472178244566,-0.31711757153338227
232,-0.4657471766513607,-0.06876472178244566,-0.31711757153338227
233,-0.465608441912182,-0.06876472178244566,-0.31711757153338227
234,-0.4654697071730033,-0.06876472178244566,-0.31711757153338227
235,-0.4653309724338246,-0.06876472178244566,-0.31711757153338227
236,-0.4651922376946459,-0.06876472178244566,-0.31711757153338227
237,-0.46505350295546727,-0.06876472178244566,-0.31711757153338227
238,-0.4649147682162886,-0.06876472178244566,-0.31711757153338227
239,-0.4647760334771099,-0.06876472178244566,-0.31711757153338227
240,-0.4646372987379312,-0.06876472178244566,-0.31711757153338227
241,-0.4644985639987525,-0.06876472178244566,-0.31711757153338227
242,-0.4643598292595738,-0.06876472178244566,-0.31711757153338227
243,-0.4642210945203951,-0.06876472178244566,-0.31711757153338227
244,-0.4640823597812164,-0.06876472178244566,-0.31711757153338227
245,-0.46394362504203773,-0.06876472178244566,-0.30149257153338227
246,-0.46380489030285904,-0.06876472178244566,-0.30149257153338227
247,-0.46366615556368035,-0.06876472178244566,-0.30149257153338227
248,-0.46352742082450166,-0.06876472178244566,-0.30149257153338227
249,-0.46338868608532297,-0.06876472178244566,-0.30149257153338227
250,-0.4632499513461443,-0.06876472178244566,-0.30149257153338227
251,-0.4631112166069656,-0.06876472178244566,-0.30149257153338227
252,-0.4629724818677869,-0.06876472178244566,-0.30149257153338227
253,-0.4628337471286082,-0.06876472178244566,-0.30149257153338227
254,-0.4626950123894295,-0.06876472178244566,-0.30149257153338227
255,-0.4625562776502508,-0.06876472178244566,-0.34836757153338227
256,-0.4624175429110721,-0.06876472178244566,-0.34836757153338227
257,-0.46227880817189343,-0.06876472178244566,-0.34836757153338227
258,-0.46214007343271474,-0.06876472178244566,-0.34836757153338227
259,-0.46200133869353605,-0.06876472178244566,-0.34836757153338227
260,-0.46186260395435735,-0.06876472178244566,-0.34836757153338227
261,-0.46172386921517866,-0.06876472178244566,-0.34836757153338227
262,-0.46158513447599997,-0.06876472178244566,-0.34836757153338227
263,-0.4614463997368213,-0.06876472178244566,-0.34836757153338227
264,-0.4613076649976426,-0.06876472178244566,-0.34836757153338227
265,-0.4611689302584639,-0.06876472178244566,-0.31711757153338227
266,-0.4610301955192852,-0.06876472178244566,-0.31711757153338227
267,-0.4608914607801065,-0.06876472178244566,-0.31711757153338227
268,-0.4607527260409278,-0.06876472178244566,-0.31711757153338227
269,-0.4606139913017491,-0.06876472178244566,-0.31711757153338227
270,-0.46047525656257043,-0.06876472178244566,-0.31711757153338227
271,-0.46033652182339174,-0.06876472178244566,-0.31711757153338227
272,-0.4601977870842131,-0.06876472178244566,-0.31711757153338227
273,-0.4600590523450344,-0.06876472178244566,-0.31711757153338227
274,-0.4599203176058557,-0.06876472178244566,-0.31711757153338227
275,-0.45978158286667703,-0.06876472178244566,-0.31711757153338227
276,-0.45964284812749834,-0.06876472178244566,-0.31711757153338227
277,-0.45950411338831965,-0.06876472178244566,-0.31711757153338227
278,-0.45936537864914095,-0.06876472178244566,-0.31711757153338227
279,-0.45922664390996226,-0.06876472178244566,-0.31711757153338227
280,-0.45908790917078357,-0.06876472178244566,-0.31711757153338227
281,-0.4589491744316049,-0.06876472178244566,-0.31711757153338227
282,-0.4588104396924262,-0.06876472178244566,-0.31711757153338227
283,-0.4586717049532475,-0.06876472178244566,-0.31711757153338227
284,-0.4585329702140688,-0.06876472178244566,-0.31711757153338227
285,-0.4583942354748901,-0.06876472178244566,-0.3327425715333823
286,-0.4582555007357114,-0.06876472178244566,-0.3327425715333823
287,-0.4581167659965327,-0.06876472178244566,-0.3327425715333823
288,-0.45797803125735403,-0.06876472178244566,-0.3327425715333823
289,-0.45783929651817534,-0.06876472178244566,-0.3327425715333823
290,-0.45770056177899665,-0.06876472178244566,-0.3327425715333823
291,-0.45756182703981796,-0.06876472178244566,-0.3327425715333823
292,-0.45742309230063927,-0.06876472178244566,-0.3327425715333823
293,-0.4572843575614606,-0.06876472178244566,-0.3327425715333823
294,-0.4571456228222819,-0.06876472178244566,-0.3327425715333823
295,-0.4570068880831032,-0.06876472178244566,-0.3327425715333823
296,-0.4568681533439245,-0.06876472178244566,-0.3327425715333823
297,-0.4567294186047458,-0.06876472178244566,-0.3327425715333823
298,-0.4565906838655671,-0.06876472178244566,-0.3327425715333823
299,-0.4564519491263884,-0.06876472178244566,-0.3327425715333823
300,-0.45631321438720973,-0.06876472178244566,-0.3327425715333823
301,-0.45617447964803104,-0.06876472178244566,-0.3327425715333823
302,-0.45603574490885235,-0.06876472178244566,-0.3327425715333823
303,-0.45589701016967366,-0.06876472178244566,-0.3327425715333823
304,-0.45575827543049496,-0.06876472178244566,-0.3327425715333823
305,-0.45561954069131627,-0.06876472178244566,-0.3327425715333823
306,-0.4554808059521376,-0.06876472178244566,-0.34836757153338227
307,-0.45534207121295894,-0.06876472178244566,-0.34836757153338227
308,-0.45520333647378025,-0.06876472178244566,-0.34836757153338227
309,-0.45506460173460156,-0.06876472178244566,-0.34836757153338227
310,-0.45492586699542287,-0.06876472178244566,-0.34836757153338227
311,-0.4547871322562442,-0.06876472178244566,-0.34836757153338227
312,-0.4546483975170655,-0.06876472178244566,-0.34836757153338227
313,-0.4545096627778868,-0.06876472178244566,-0.34836757153338227
314,-0.4543709280387081,-0.06876472178244566,-0.34836757153338227
315,-0.4542321932995294,-0.06876472178244566,-0.34836757153338227
316,-0.4540934585603507,-0.06876472178244566,-0.34836757153338227
317,-0.453954723821172,-0.06876472178244566,-0.34836757153338227
318,-0.45381598908199333,-0.06876472178244566,-0.34836757153338227
319,-0.45367725434281464,-0.06876472178244566,-0.34836757153338227
320,-0.45353851960363595,-0.06876472178244566,-0.34836757153338227
321,-0.45339978486445726,-0.06876472178244566,-0.34836757153338227
322,-0.45326105012527856,-0.06876472178244566,-0.34836757153338227
323,-0.45312231538609987,-0.06876472178244566,-0.34836757153338227
324,-0.4529835806469212,-0.06876472178244566,-0.34836757153338227
325,-0.4528448459077425,-0.06876472178244566,-0.34836757153338227
326,-0.4527061111685638,-0.06876472178244566,-0.34836757153338227
327,-0.4525673764293851,-0.06876472178244566,-0.34836757153338227
328,-0.4524286416902064,-0.06876472178244566,-0.34836757153338227
329,-0.4522899069510277,-0.06876472178244566,-0.34836757153338227
330,-0.45215117221184903,-0.06876472178244566,-0.34836757153338227
331,-0.45201243747267034,-0.06876472178244566,-0.34836757153338227
332,-0.45187370273349164,-0.06876472178244566,-0.34836757153338227
333,-0.45173496799431295,-0.06876472178244566,-0.34836757153338227
334,-0.45159623325513426,-0.06876472178244566,-0.34836757153338227
335,-0.45145749851595557,-0.06876472178244566,-0.34836757153338227
336,-0.4513187637767769,-0.06876472178244566,-0.34836757153338227
337,-0.4511800290375982,-0.06876472178244566,-0.34836757153338227
338,-0.4510412942984195,-0.06876472178244566,-0.34836757153338227
339,-0.4509025595592408,-0.06876472178244566,-0.34836757153338227
340,-0.4507638248200621,-0.06876472178244566,-0.34836757153338227
341,-0.4506250900808835,-0.06876472178244566,-0.34836757153338227
342,-0.4504863553417048,-0.06876472178244566,-0.34836757153338227
343,-0.4503476206025261,-0.06876472178244566,-0.34836757153338227
344,-0.4502088858633474,-0.06876472178244566,-0.34836757153338227
345,-0.4500701511241687,-0.06876472178244566,-0.34836757153338227
346,-0.44993141638499,-0.06876472178244566,-0.34836757153338227
347,-0.4497926816458113,-0.06876472178244566,-0.34836757153338227
348,-0.44965394690663263,-0.06876472178244566,-0.34836757153338227
349,-0.44951521216745394,-0.06876472178244566,-0.34836757153338227
350,-0.44937647742827524,-0.06876472178244566,-0.34836757153338227
351,-0.44923774268909655,-0.06876472178244566,-0.34836757153338227
352,-0.44909900794991786,-0.06876472178244566,-0.34836757153338227
353,-0.44896027321073917,-0.06876472178244566,-0.34836757153338227
354,-0.4488215384715605,-0.06876472178244566,-0.34836757153338227
355,-0.4486828037323818,-0.06876472178244566,-0.34836757153338227
356,-0.4485440689932031,-0.06876472178244566,-0.34836757153338227
357,-0.4484053342540244,-0.06876472178244566,-0.34836757153338227
358,-0.4482665995148457,-0.06876472178244566,-0.31711757153338227
359,-0.448127864775667,-0.06876472178244566,-0.31711757153338227
360,-0.4479891300364883,-0.06876472178244566,-0.31711757153338227
361,-0.44785039529730963,-0.06876472178244566,-0.31711757153338227
362,-0.44771166055813094,-0.06876472178244566,-0.31711757153338227
363,-0.44757292581895225,-0.06876472178244566,-0.31711757153338227
364,-0.44743419107977356,-0.06876472178244566,-0.31711757153338227
365,-0.44729545634059487,-0.06876472178244566,-0.31711757153338227
366,-0.4471567216014162,-0.06876472178244566,-0.31711757153338227
367,-0.4470179868622375,-0.06876472178244566,-0.31711757153338227
368,-0.4468792521230588,-0.06876472178244566,-0.11399257153338227
369,-0.4467405173838801,-0.06876472178244566,-0.11399257153338227
370,-0.4466017826447014,-0.06876472178244566,-0.11399257153338227
371,-0.4464630479055227,-0.06876472178244566,-0.11399257153338227
372,-0.446324313166344,-0.06876472178244566,-0.11399257153338227
373,-0.44618557842716533,-0.06876472178244566,-0.11399257153338227
374,-0.44604684368798664,-0.06876472178244566,-0.11399257153338227
375,-0.44590810894880795,-0.06876472178244566,-0.11399257153338227
376,-0.4457693742096293,-0.06876472178244566,-0.11399257153338227
377,-0.4456306394704506,-0.06876472178244566,-0.11399257153338227
378,-0.4454919047312719,-0.06876472178244566,-0.11399257153338227
379,-0.44535316999209323,-0.06876472178244566,0.011007428466617702
380,-0.44521443525291454,-0.06876472178244566,0.011007428466617702
381,-0.44507570051373585,-0.06876472178244566,0.011007428466617702
382,-0.44493696577455716,-0.06876472178244566,0.011007428466617702
383,-0.44479823103537847,-0.06876472178244566,0.011007428466617702
384,-0.4446594962961998,-0.06876472178244566,0.011007428466617702
385,-0.4445207615570211,-0.06876472178244566,0.011007428466617702
386,-0.4443820268178424,-0.06876472178244566,0.011007428466617702
387,-0.4442432920786637,-0.06876472178244566,0.011007428466617702
388,-0.444104557339485,-0.06876472178244566,0.011007428466617702
389,-0.4439658226003063,-0.06876472178244566,0.13600742846661767
390,-0.4438270878611276,-0.06876472178244566,0.13600742846661767
391,-0.44368835312194893,-0.06876472178244566,0.13600742846661767
392,-0.44354961838277024,-0.06876472178244566,0.13600742846661767
393,-0.44341088364359155,-0.06876472178244566,0.13600742846661767
394,-0.44327214890441285,-0.06876472178244566,0.13600742846661767
395,-0.44313341416523416,-0.06876472178244566,0.13600742846661767
396,-0.44299467942605547,-0.06876472178244566,0.13600742846661767
397,-0.4428559446868768,-0.06876472178244566,0.13600742846661767
398,-0.4427172099476981,-0.06876472178244566,0.13600742846661767
399,-0.4425784752085194,-0.06876472178244566,0.15163242846661776
400,-0.4424397404693407,-0.06876472178244566,0.15163242846661776
401,-0.442301005730162,-0.06876472178244566,0.15163242846661776
402,-0.4421622709909833,-0.06876472178244566,0.15163242846661776
403,-0.4420235362518046,-0.06876472178244566,0.15163242846661776
404,-0.44188480151262594,-0.06876472178244566,0.15163242846661776
405,-0.44174606677344724,-0.06876472178244566,0.15163242846661776
406,-0.44160733203426855,-0.06876472178244566,0.15163242846661776
407,-0.44146859729508986,-0.06876472178244566,0.15163242846661776
408,-0.44132986255591117,-0.06876472178244566,0.15163242846661776
409,-0.4411911278167325,-0.06876472178244566,0.2453824284666177
410,-0.4410523930775538,-0.06876472178244566,0.2453824284666177
411,-0.44091365833837515,-0.06876472178244566,0.2453824284666177
412,-0.44077492359919646,-0.06876472178244566,0.2453824284666177
413,-0.44063618886001776,-0.06876472178244566,0.2453824284666177
414,-0.44049745412083907,-0.06876472178244566,0.2453824284666177
415,-0.4403587193816604,-0.06876472178244566,0.2453824284666177
416,-0.4402199846424817,-0.06876472178244566,0.2453824284666177
417,-0.440081249903303,-0.06876472178244566,0.2453824284666177
418,-0.4399425151641243,-0.06876472178244566,0.2453824284666177
419,-0.4398037804249456,-0.06876472178244566,0.2453824284666177
420,-0.4396650456857669,-0.06876472178244566,0.2453824284666177
421,-0.43952631094658823,-0.06876472178244566,0.2453824284666177
422,-0.43938757620740954,-0.06876472178244566,0.2453824284666177
423,-0.43924884146823084,-0.06876472178244566,0.2453824284666177
424,-0.43911010672905215,-0.06876472178244566,0.2453824284666177
425,-0.43897137198987346,-0.06876472178244566,0.2453824284666177
426,-0.43883263725069477,-0.06876472178244566,0.2453824284666177
427,-0.4386939025115161,-0.06876472178244566,0.2453824284666177
428,-0.4385551677723374,-0.06876472178244566,0.2453824284666177
429,-0.4384164330331587,-0.06876472178244566,0.15163242846661776
430,-0.43827769829398,-0.06876472178244566,0.15163242846661776
431,-0.4381389635548013,-0.06876472178244566,0.15163242846661776
432,-0.4380002288156226,-0.06876472178244566,0.15163242846661776
433,-0.4378614940764439,-0.06876472178244566,0.15163242846661776
434,-0.43772275933726523,-0.06876472178244566,0.15163242846661776
435,-0.43758402459808654,-0.06876472178244566,0.15163242846661776
436,-0.43744528985890785,-0.06876472178244566,0.15163242846661776
437,-0.43730655511972916,-0.06876472178244566,0.15163242846661776
438,-0.43716782038055046,-0.06876472178244566,0.15163242846661776
439,-0.4370290856413718,-0.06876472178244566,0.15163242846661776
440,-0.4368903509021931,-0.06876472178244566,-0.004617571533382242
441,-0.4367516161630144,-0.06876472178244566,-0.004617571533382242
442,-0.4366128814238357,-0.06876472178244566,-0.004617571533382242
443,-0.436474146684657,-0.06876472178244566,-0.004617571533382242
444,-0.4363354119454783,-0.06876472178244566,-0.004617571533382242
445,-0.4361966772062997,-0.06876472178244566,-0.004617571533382242
446,-0.436057942467121,-0.06876472178244566,-0.004617571533382242
447,-0.4359192077279423,-0.06876472178244566,-0.004617571533382242
448,-0.4357804729887636,-0.06876472178244566,-0.004617571533382242
449,-0.4356417382495849,-0.06876472178244566,-0.004617571533382242
450,-0.4355030035104062,-0.06876472178244566,-0.12961757153338227
451,-0.4353642687712275,-0.06876472178244566,-0.12961757153338227
452,-0.43522553403204883,-0.06876472178244566,-0.12961757153338227
453,-0.43508679929287014,-0.06876472178244566,-0.12961757153338227
454,-0.43494806455369145,-0.06876472178244566,-0.12961757153338227
455,-0.43480932981451276,-0.06876472178244566,-0.12961757153338227
456,-0.43467059507533407,-0.06876472178244566,-0.12961757153338227
457,-0.4345318603361554,-0.06876472178244566,-0.12961757153338227
458,-0.4343931255969767,-0.06876472178244566,-0.12961757153338227
459,-0.434254390857798,-0.06876472178244566,-0.12961757153338227
460,-0.4341156561186193,-0.06876472178244566,-0.19211757153338227
461,-0.4339769213794406,-0.06876472178244566,-0.19211757153338227
462,-0.4338381866402619,-0.06876472178244566,-0.19211757153338227
463,-0.4336994519010832,-0.06876472178244566,-0.19211757153338227
464,-0.43356071716190453,-0.06876472178244566,-0.19211757153338227
465,-0.43342198242272584,-0.06876472178244566,-0.19211757153338227
466,-0.43328324768354715,-0.06876472178244566,-0.19211757153338227
467,-0.43314451294436845,-0.06876472178244566,-0.19211757153338227
468,-0.43300577820518976,-0.06876472178244566,-0.19211757153338227
469,-0.43286704346601107,-0.06876472178244566,-0.19211757153338227
470,-0.4327283087268324,-0.06876472178244566,-0.2546175715333823
471,-0.4325895739876537,-0.06876472178244566,-0.2546175715333823
472,-0.432450839248475,-0.06876472178244566,-0.2546175715333823
473,-0.4323121045092963,-0.06876472178244566,-0.2546175715333823
474,-0.4321733697701176,-0.06876472178244566,-0.2546175715333823
475,-0.4320346350309389,-0.06876472178244566,-0.2546175715333823
476,-0.4318959002917602,-0.06876472178244566,-0.2546175715333823
477,-0.43175716555258153,-0.06876472178244566,-0.2546175715333823
478,-0.43161843081340284,-0.06876472178244566,-0.2546175715333823
479,-0.43147969607422415,-0.06876472178244566,-0.2546175715333823
480,-0.4313409613350455,-0.06876472178244566,-0.2546175715333823
481,-0.4312022265958668,-0.06876472178244566,-0.28586757153338227
482,-0.43106349185668813,-0.06876472178244566,-0.28586757153338227
483,-0.43092475711750944,-0.06876472178244566,-0.28586757153338227
484,-0.43078602237833075,-0.06876472178244566,-0.28586757153338227
485,-0.43064728763915205,-0.06876472178244566,-0.28586757153338227
486,-0.43050855289997336,-0.06876472178244566,-0.28586757153338227
503,-0.4281500623339356,-0.01613314283507724,-0.31711757153338227
504,-0.4280113275947569,-0.01613314283507724,-0.31711757153338227
505,-0.4278725928555782,-0.01613314283507724,-0.31711757153338227
506,-0.4277338581163995,-0.01613314283507724,-0.31711757153338227
507,-0.42759512337722083,-0.01613314283507724,-0.31711757153338227
508,-0.42745638863804214,-0.01613314283507724,-0.31711757153338227
509,-0.42731765389886345,-0.01613314283507724,-0.31711757153338227
510,-0.42717891915968476,-0.01613314283507724,-0.31711757153338227
511,-0.42704018442050606,-0.01613314283507724,-0.4108675715333823
512,-0.42690144968132737,-0.01613314283507724,-0.4108675715333823
513,-0.4267627149421487,-0.01613314283507724,-0.4108675715333823
514,-0.42662398020297,-0.01613314283507724,-0.4108675715333823
515,-0.42648524546379135,-0.01613314283507724,-0.4108675715333823
516,-0.42634651072461266,-0.01613314283507724,-0.4108675715333823
517,-0.42620777598543397,-0.01613314283507724,-0.4108675715333823
518,-0.4260690412462553,-0.01613314283507724,-0.4108675715333823
519,-0.4259303065070766,-0.01613314283507724,-0.4108675715333823
520,-0.4257915717678979,-0.01613314283507724,-0.4108675715333823
521,-0.4256528370287192,-0.01613314283507724,-0.4108675715333823
522,-0.4255141022895405,-0.01613314283507724,-0.4108675715333823
523,-0.4253753675503618,-0.01613314283507724,-0.4108675715333823
524,-0.4252366328111831,-0.01613314283507724,-0.4108675715333823
525,-0.42509789807200443,-0.01613314283507724,-0.4108675715333823
526,-0.42495916333282574,-0.01613314283507724,-0.4108675715333823
527,-0.42482042859364705,-0.01613314283507724,-0.4108675715333823
528,-0.42468169385446836,-0.01613314283507724,-0.4108675715333823
529,-0.42454295911528966,-0.01613314283507724,-0.4108675715333823
530,-0.424404224376111,-0.01613314283507724,-0.4108675715333823
531,-0.4242654896369323,-0.01613314283507724,-0.4108675715333823
532,-0.4241267548977536,-0.01613314283507724,-0.5046175715333823
533,-0.4239880201585749,-0.01613314283507724,-0.5046175715333823
534,-0.4238492854193962,-0.01613314283507724,-0.5046175715333823
535,-0.4237105506802175,-0.01613314283507724,-0.5046175715333823
536,-0.4235718159410388,-0.01613314283507724,-0.5046175715333823
537,-0.42343308120186013,-0.01613314283507724,-0.5046175715333823
538,-0.42329434646268144,-0.01613314283507724,-0.5046175715333823
539,-0.42315561172350274,-0.01613314283507724,-0.5046175715333823
540,-0.42301687698432405,-0.01613314283507724,-0.5046175715333823
541,-0.42287814224514536,-0.01613314283507724,-0.5046175715333823
542,-0.42273940750596667,-0.01613314283507724,-0.5202425715333823
543,-0.422600672766788,-0.01613314283507724,-0.5202425715333823
544,-0.4224619380276093,-0.01613314283507724,-0.5202425715333823
545,-0.4223232032884306,-0.01613314283507724,-0.5202425715333823
546,-0.4221844685492519,-0.01613314283507724,-0.5202425715333823
547,-0.4220457338100732,-0.01613314283507724,-0.5202425715333823
548,-0.4219069990708945,-0.01613314283507724,-0.5202425715333823
549,-0.4217682643317159,-0.01613314283507724,-0.5202425715333823
550,-0.4216295295925372,-0.01613314283507724,-0.5202425715333823
551,-0.4214907948533585,-0.01613314283507724,-0.5202425715333823
552,-0.4213520601141798,-0.01613314283507724,-0.5202425715333823
553,-0.4212133253750011,-0.01613314283507724,-0.45774257153338227
554,-0.4210745906358224,-0.01613314283507724,-0.45774257153338227
555,-0.42093585589664373,-0.01613314283507724,-0.45774257153338227
556,-0.42079712115746504,-0.01613314283507724,-0.45774257153338227
557,-0.42065838641828635,-0.01613314283507724,-0.45774257153338227
558,-0.42051965167910765,-0.01613314283507724,-0.45774257153338227
559,-0.42038091693992896,-0.01613314283507724,-0.45774257153338227
560,-0.42024218220075027,-0.01613314283507724,-0.45774257153338227
561,-0.4201034474615716,-0.01613314283507724,-0.45774257153338227
562,-0.4199647127223929,-0.01613314283507724,-0.45774257153338227
563,-0.4198259779832142,-0.01613314283507724,-0.39524257153338227
564,-0.4196872432440355,-0.01613314283507724,-0.39524257153338227
565,-0.4195485085048568,-0.01613314283507724,-0.39524257153338227
566,-0.4194097737656781,-0.01613314283507724,-0.39524257153338227
567,-0.4192710390264994,-0.01613314283507724,-0.39524257153338227
568,-0.41913230428732073,-0.01613314283507724,-0.39524257153338227
569,-0.41899356954814204,-0.01613314283507724,-0.39524257153338227
570,-0.41885483480896335,-0.01613314283507724,-0.39524257153338227
571,-0.41871610006978466,-0.01613314283507724,-0.39524257153338227
572,-0.41857736533060597,-0.01613314283507724,-0.39524257153338227
573,-0.4184386305914273,-0.01613314283507724,-0.3327425715333823
574,-0.4182998958522486,-0.01613314283507724,-0.3327425715333823
575,-0.4181611611130699,-0.01613314283507724,-0.3327425715333823
576,-0.4180224263738912,-0.01613314283507724,-0.3327425715333823
577,-0.4178836916347125,-0.01613314283507724,-0.3327425715333823
578,-0.4177449568955338,-0.01613314283507724,-0.3327425715333823
579,-0.4176062221563551,-0.01613314283507724,-0.3327425715333823
580,-0.41746748741717643,-0.01613314283507724,-0.3327425715333823
581,-0.41732875267799774,-0.01613314283507724,-0.3327425715333823
582,-0.41719001793881905,-0.01613314283507724,-0.3327425715333823
583,-0.41705128319964035,-0.01613314283507724,-0.3327425715333823
584,-0.4169125484604617,-0.01613314283507724,-0.2546175715333823
585,-0.416773813721283,-0.01613314283507724,-0.2546175715333823
586,-0.41663507898210433,-0.01613314283507724,-0.2546175715333823
587,-0.41649634424292564,-0.01613314283507724,-0.2546175715333823
588,-0.41635760950374695,-0.01613314283507724,-0.2546175715333823
589,-0.41621887476456826,-0.01613314283507724,-0.2546175715333823
590,-0.41608014002538957,-0.01613314283507724,-0.2546175715333823
591,-0.4159414052862109,-0.01613314283507724,-0.2546175715333823
592,-0.4158026705470322,-0.01613314283507724,-0.2546175715333823
593,-0.4156639358078535,-0.01613314283507724,-0.2546175715333823
594,-0.4155252010686748,-0.01613314283507724,-0.20774257153338227
595,-0.4153864663294961,-0.01613314283507724,-0.20774257153338227
596,-0.4152477315903174,-0.01613314283507724,-0.20774257153338227
597,-0.4151089968511387,-0.01613314283507724,-0.20774257153338227
598,-0.41497026211196003,-0.01613314283507724,-0.20774257153338227
599,-0.41483152737278134,-0.01613314283507724,-0.20774257153338227
600,-0.41469279263360265,-0.01613314283507724,-0.20774257153338227
601,-0.41455405789442396,-0.01613314283507724,-0.20774257153338227
602,-0.41441532315524526,-0.01613314283507724,-0.20774257153338227
603,-0.41427658841606657,-0.01613314283507724,-0.20774257153338227
604,-0.4141378536768879,-0.01613314283507724,-0.20774257153338227
605,-0.4139991189377092,-0.01613314283507724,-0.20774257153338227
606,-0.4138603841985305,-0.01613314283507724,-0.20774257153338227
607,-0.4137216494593518,-0.01613314283507724,-0.20774257153338227
608,-0.4135829147201731,-0.01613314283507724,-0.20774257153338227
609,-0.4134441799809944,-0.01613314283507724,-0.20774257153338227
610,-0.4133054452418157,-0.01613314283507724,-0.20774257153338227
611,-0.41316671050263704,-0.01613314283507724,-0.20774257153338227
612,-0.41302797576345834,-0.01613314283507724,-0.20774257153338227
613,-0.41288924102427965,-0.01613314283507724,-0.20774257153338227
614,-0.41275050628510096,-0.01613314283507724,-0.20774257153338227
615,-0.41261177154592227,-0.01613314283507724,-0.20774257153338227
616,-0.4124730368067436,-0.01613314283507724,-0.20774257153338227
617,-0.4123343020675649,-0.01613314283507724,-0.20774257153338227
618,-0.4121955673283862,-0.01613314283507724,-0.20774257153338227
619,-0.41205683258920756,-0.01613314283507724,-0.20774257153338227
620,-0.41191809785002886,-0.01613314283507724,-0.20774257153338227
621,-0.41177936311085017,-0.01613314283507724,-0.20774257153338227
622,-0.4116406283716715,-0.01613314283507724,-0.20774257153338227
623,-0.4115018936324928,-0.01613314283507724,-0.20774257153338227
624,-0.4113631588933141,-0.01613314283507724,-0.20774257153338227
625,-0.4112244241541354,-0.01613314283507724,-0.20774257153338227
626,-0.4110856894149567,-0.01613314283507724,-0.20774257153338227
627,-0.410946954675778,-0.01613314283507724,-0.20774257153338227
628,-0.41080821993659933,-0.01613314283507724,-0.20774257153338227
629,-0.41066948519742064,-0.01613314283507724,-0.20774257153338227
630,-0.41053075045824194,-0.01613314283507724,-0.20774257153338227
631,-0.41039201571906325,-0.01613314283507724,-0.20774257153338227
632,-0.41025328097988456,-0.01613314283507724,-0.20774257153338227
633,-0.41011454624070587,-0.01613314283507724,-0.20774257153338227
634,-0.4099758115015272,-0.01613314283507724,-0.19211757153338227
635,-0.4098370767623485,-0.01613314283507724,-0.19211757153338227
636,-0.4096983420231698,-0.01613314283507724,-0.19211757153338227
637,-0.4095596072839911,-0.01613314283507724,-0.19211757153338227
638,-0.4094208725448124,-0.01613314283507724,-0.19211757153338227
639,-0.4092821378056337,-0.01613314283507724,-0.19211757153338227
640,-0.409143403066455,-0.01613314283507724,-0.19211757153338227
641,-0.40900466832727633,-0.01613314283507724,-0.19211757153338227
642,-0.40886593358809764,-0.01613314283507724,-0.19211757153338227
643,-0.40872719884891895,-0.01613314283507724,-0.19211757153338227
644,-0.40858846410974026,-0.01613314283507724,-0.19211757153338227
645,-0.40844972937056157,-0.01613314283507724,-0.12961757153338227
646,-0.4083109946313829,-0.01613314283507724,-0.12961757153338227
647,-0.4081722598922042,-0.01613314283507724,-0.12961757153338227
648,-0.4080335251530255,-0.01613314283507724,-0.12961757153338227
649,-0.4078947904138468,-0.01613314283507724,-0.12961757153338227
650,-0.4077560556746681,-0.01613314283507724,-0.12961757153338227
651,-0.4076173209354894,-0.01613314283507724,-0.12961757153338227
652,-0.4074785861963107,-0.01613314283507724,-0.12961757153338227
653,-0.4073398514571321,-0.01613314283507724,-0.12961757153338227
654,-0.4072011167179534,-0.01613314283507724,-0.12961757153338227
655,-0.4070623819787747,-0.01613314283507724,-0.08274257153338231
656,-0.406923647239596,-0.01613314283507724,-0.08274257153338231
657,-0.4067849125004173,-0.01613314283507724,-0.08274257153338231
658,-0.4066461777612386,-0.01613314283507724,-0.08274257153338231
659,-0.40650744302205993,-0.01613314283507724,-0.08274257153338231
660,-0.40636870828288124,-0.01613314283507724,-0.08274257153338231
661,-0.40622997354370255,-0.01613314283507724,-0.08274257153338231
662,-0.40609123880452386,-0.01613314283507724,-0.08274257153338231
663,-0.40595250406534517,-0.01613314283507724,-0.08274257153338231
664,-0.4058137693261665,-0.01613314283507724,-0.08274257153338231
665,-0.4056750345869878,-0.01613314283507724,-0.09836757153338233
666,-0.4055362998478091,-0.01613314283507724,-0.09836757153338233
667,-0.4053975651086304,-0.01613314283507724,-0.09836757153338233
668,-0.4052588303694517,-0.01613314283507724,-0.09836757153338233
669,-0.405120095630273,-0.01613314283507724,-0.09836757153338233
670,-0.4049813608910943,-0.01613314283507724,-0.09836757153338233
671,-0.40484262615191563,-0.01613314283507724,-0.09836757153338233
672,-0.40470389141273694,-0.01613314283507724,-0.09836757153338233
673,-0.40456515667355825,-0.01613314283507724,-0.09836757153338233
674,-0.40442642193437955,-0.01613314283507724,-0.09836757153338233
675,-0.40428768719520086,-0.01613314283507724,-0.08274257153338231
676,-0.40414895245602217,-0.01613314283507724,-0.08274257153338231
677,-0.4040102177168435,-0.01613314283507724,-0.08274257153338231
678,-0.4038714829776648,-0.01613314283507724,-0.08274257153338231
679,-0.4037327482384861,-0.01613314283507724,-0.08274257153338231
680,-0.4035940134993074,-0.01613314283507724,-0.08274257153338231
681,-0.4034552787601287,-0.01613314283507724,-0.08274257153338231
682,-0.40331654402095,-0.01613314283507724,-0.08274257153338231
683,-0.4031778092817713,-0.01613314283507724,-0.08274257153338231
684,-0.40303907454259263,-0.01613314283507724,-0.08274257153338231
685,-0.40290033980341394,-0.01613314283507724,-0.08274257153338231
686,-0.40276160506423525,-0.01613314283507724,-0.08274257153338231
687,-0.40262287032505656,-0.01613314283507724,-0.08274257153338231
688,-0.4024841355858779,-0.01613314283507724,-0.08274257153338231
689,-0.40234540084669923,-0.01613314283507724,-0.08274257153338231
690,-0.40220666610752054,-0.01613314283507724,-0.08274257153338231
691,-0.40206793136834185,-0.01613314283507724,-0.08274257153338231
692,-0.40192919662916315,-0.01613314283507724,-0.08274257153338231
693,-0.40179046188998446,-0.01613314283507724,-0.08274257153338231
694,-0.40165172715080577,-0.01613314283507724,-0.08274257153338231
695,-0.4015129924116271,-0.01613314283507724,-0.08274257153338231
696,-0.4013742576724484,-0.01613314283507724,-0.0671175715333823
697,-0.4012355229332697,-0.01613314283507724,-0.0671175715333823
698,-0.401096788194091,-0.01613314283507724,-0.0671175715333823
699,-0.4009580534549123,-0.01613314283507724,-0.0671175715333823
700,-0.4008193187157336,-0.01613314283507724,-0.0671175715333823
701,-0.4006805839765549,-0.01613314283507724,-0.0671175715333823
702,-0.40054184923737624,-0.01613314283507724,-0.0671175715333823
703,-0.40040311449819754,-0.01613314283507724,-0.0671175715333823
704,-0.40026437975901885,-0.01613314283507724,-0.0671175715333823
705,-0.40012564501984016,-0.01613314283507724,-0.0671175715333823
706,-0.39998691028066147,-0.01613314283507724,-0.0671175715333823
707,-0.3998481755414828,-0.01613314283507724,-0.0671175715333823
708,-0.3997094408023041,-0.01613314283507724,-0.0671175715333823
709,-0.3995707060631254,-0.01613314283507724,-0.0671175715333823
710,-0.3994319713239467,-0.01613314283507724,-0.0671175715333823
711,-0.399293236584768,-0.01613314283507724,-0.0671175715333823
712,-0.3991545018455893,-0.01613314283507724,-0.0671175715333823
713,-0.3990157671064106,-0.01613314283507724,-0.0671175715333823
714,-0.39887703236723193,-0.01613314283507724,-0.0671175715333823
715,-0.39873829762805324,-0.01613314283507724,-0.0671175715333823
716,-0.39859956288887455,-0.01613314283507724,-0.11399257153338227
717,-0.39846082814969586,-0.01613314283507724,-0.11399257153338227
718,-0.39832209341051716,-0.01613314283507724,-0.11399257153338227
719,-0.39818335867133847,-0.01613314283507724,-0.11399257153338227
720,-0.3980446239321598,-0.01613314283507724,-0.11399257153338227
721,-0.3979058891929811,-0.01613314283507724,-0.11399257153338227
722,-0.3977671544538024,-0.01613314283507724,-0.11399257153338227
723,-0.39762841971462376,-0.01613314283507724,-0.11399257153338227
724,-0.39748968497544507,-0.01613314283507724,-0.11399257153338227
725,-0.3973509502362664,-0.01613314283507724,-0.11399257153338227
726,-0.3972122154970877,-0.01613314283507724,-0.12961757153338227
727,-0.397073480757909,-0.01613314283507724,-0.12961757153338227
728,-0.3969347460187303,-0.01613314283507724,-0.12961757153338227
729,-0.3967960112795516,-0.01613314283507724,-0.12961757153338227
730,-0.3966572765403729,-0.01613314283507724,-0.12961757153338227
731,-0.3965185418011942,-0.01613314283507724,-0.12961757153338227
732,-0.39637980706201553,-0.01613314283507724,-0.12961757153338227
733,-0.39624107232283684,-0.01613314283507724,-0.12961757153338227
734,-0.39610233758365815,-0.01613314283507724,-0.12961757153338227
735,-0.39596360284447946,-0.01613314283507724,-0.12961757153338227
736,-0.39582486810530076,-0.01613314283507724,-0.12961757153338227
737,-0.3956861333661221,-0.01613314283507724,-0.12961757153338227
738,-0.3955473986269434,-0.01613314283507724,-0.12961757153338227
739,-0.3954086638877647,-0.01613314283507724,-0.12961757153338227
740,-0.395269929148586,-0.01613314283507724,-0.12961757153338227
741,-0.3951311944094073,-0.01613314283507724,-0.12961757153338227
742,-0.3949924596702286,-0.01613314283507724,-0.12961757153338227
743,-0.3948537249310499,-0.01613314283507724,-0.12961757153338227
744,-0.39471499019187123,-0.01613314283507724,-0.12961757153338227
745,-0.39457625545269254,-0.01613314283507724,-0.12961757153338227
746,-0.39443752071351385,-0.01613314283507724,-0.12961757153338227
747,-0.39429878597433515,-0.01613314283507724,-0.12961757153338227
748,-0.39416005123515646,-0.01613314283507724,-0.12961757153338227
749,-0.39402131649597777,-0.01613314283507724,-0.12961757153338227
750,-0.3938825817567991,-0.01613314283507724,-0.12961757153338227
751,-0.3937438470176204,-0.01613314283507724,-0.12961757153338227
752,-0.3936051122784417,-0.01613314283507724,-0.12961757153338227
753,-0.393466377539263,-0.01613314283507724,-0.12961757153338227
754,-0.3933276428000843,-0.01613314283507724,-0.12961757153338227
755,-0.3931889080609056,-0.01613314283507724,-0.12961757153338227
756,-0.3930501733217269,-0.01613314283507724,-0.12961757153338227
757,-0.3929114385825483,-0.01613314283507724,-0.12961757153338227
758,-0.3927727038433696,-0.01613314283507724,-0.12961757153338227
759,-0.3926339691041909,-0.01613314283507724,-0.12961757153338227
760,-0.3924952343650122,-0.01613314283507724,-0.12961757153338227
761,-0.3923564996258335,-0.01613314283507724,-0.12961757153338227
762,-0.39221776488665483,-0.01613314283507724,-0.12961757153338227
763,-0.39207903014747614,-0.01613314283507724,-0.12961757153338227
764,-0.39194029540829745,-0.01613314283507724,-0.12961757153338227
765,-0.39180156066911875,-0.01613314283507724,-0.12961757153338227
766,-0.39166282592994006,-0.01613314283507724,-0.12961757153338227
767,-0.39152409119076137,-0.01613314283507724,-0.12961757153338227
768,-0.3913853564515827,-0.01613314283507724,-0.12961757153338227
769,-0.391246621712404,-0.01613314283507724,-0.12961757153338227
770,-0.3911078869732253,-0.01613314283507724,-0.12961757153338227
771,-0.3909691522340466,-0.01613314283507724,-0.12961757153338227
772,-0.3908304174948679,-0.01613314283507724,-0.12961757153338227
773,-0.3906916827556892,-0.01613314283507724,-0.12961757153338227
774,-0.3905529480165105,-0.01613314283507724,-0.12961757153338227
775,-0.39041421327733183,-0.01613314283507724,-0.12961757153338227
776,-0.39027547853815314,-0.01613314283507724,-0.12961757153338227
777,-0.39013674379897445,-0.01613314283507724,-0.12961757153338227
778,-0.38999800905979576,-0.01613314283507724,-0.12961757153338227
779,-0.38985927432061707,-0.01613314283507724,-0.12961757153338227
780,-0.3897205395814384,-0.01613314283507724,-0.12961757153338227
781,-0.3895818048422597,-0.01613314283507724,-0.12961757153338227
782,-0.389443070103081,-0.01613314283507724,-0.12961757153338227
783,-0.3893043353639023,-0.01613314283507724,-0.12961757153338227
784,-0.3891656006247236,-0.01613314283507724,-0.12961757153338227
785,-0.3890268658855449,-0.01613314283507724,-0.12961757153338227
786,-0.3888881311463662,-0.01613314283507724,-0.12961757153338227
787,-0.38874939640718753,-0.01613314283507724,-0.12961757153338227
788,-0.38861066166800884,-0.01613314283507724,-0.1452425715333823
789,-0.38847192692883015,-0.01613314283507724,-0.1452425715333823
790,-0.38833319218965145,-0.01613314283507724,-0.1452425715333823
791,-0.38819445745047276,-0.01613314283507724,-0.1452425715333823
792,-0.3880557227112941,-0.01613314283507724,-0.1452425715333823
793,-0.38791698797211543,-0.01613314283507724,-0.1452425715333823
794,-0.38777825323293674,-0.01613314283507724,-0.1452425715333823
795,-0.38763951849375805,-0.01613314283507724,-0.1452425715333823
808,-0.38583596688443506,-0.22665945862455092,-0.1608675715333823
809,-0.38569723214525636,-0.22665945862455092,-0.1608675715333823
810,-0.38555849740607767,-0.22665945862455092,-0.1608675715333823
811,-0.385419762666899,-0.22665945862455092,-0.1608675715333823
812,-0.3852810279277203,-0.22665945862455092,-0.1608675715333823
813,-0.3851422931885416,-0.22665945862455092,-0.1608675715333823
814,-0.3850035584493629,-0.22665945862455092,-0.1608675715333823
815,-0.3848648237101842,-0.22665945862455092,-0.1608675715333823
816,-0.3847260889710055,-0.22665945862455092,-0.1608675715333823
817,-0.38458735423182683,-0.22665945862455092,-0.1608675715333823
818,-0.38444861949264814,-0.22665945862455092,-0.1608675715333823
819,-0.38430988475346944,-0.22665945862455092,-0.0671175715333823
820,-0.38417115001429075,-0.22665945862455092,-0.0671175715333823
821,-0.38403241527511206,-0.22665945862455092,-0.0671175715333823
822,-0.38389368053593337,-0.22665945862455092,-0.0671175715333823
823,-0.3837549457967547,-0.22665945862455092,-0.0671175715333823
824,-0.383616211057576,-0.22665945862455092,-0.0671175715333823
825,-0.3834774763183973,-0.22665945862455092,-0.0671175715333823
826,-0.3833387415792186,-0.22665945862455092,-0.0671175715333823
827,-0.38320000684003996,-0.22665945862455092,-0.0671175715333823
828,-0.38306127210086127,-0.22665945862455092,-0.0671175715333823
829,-0.3829225373616826,-0.22665945862455092,-0.09836757153338233
830,-0.3827838026225039,-0.22665945862455092,-0.09836757153338233
831,-0.3826450678833252,-0.22665945862455092,-0.09836757153338233
832,-0.3825063331441465,-0.22665945862455092,-0.09836757153338233
833,-0.3823675984049678,-0.22665945862455092,-0.09836757153338233
834,-0.3822288636657891,-0.22665945862455092,-0.09836757153338233
835,-0.38209012892661043,-0.22665945862455092,-0.09836757153338233
836,-0.38195139418743174,-0.22665945862455092,-0.09836757153338233
837,-0.38181265944825304,-0.22665945862455092,-0.09836757153338233
838,-0.38167392470907435,-0.22665945862455092,-0.09836757153338233
839,-0.38153518996989566,-0.22665945862455092,-0.11399257153338227
840,-0.38139645523071697,-0.22665945862455092,-0.11399257153338227
841,-0.3812577204915383,-0.22665945862455092,-0.11399257153338227
842,-0.3811189857523596,-0.22665945862455092,-0.11399257153338227
843,-0.3809802510131809,-0.22665945862455092,-0.11399257153338227
844,-0.3808415162740022,-0.22665945862455092,-0.11399257153338227
845,-0.3807027815348235,-0.22665945862455092,-0.11399257153338227
846,-0.3805640467956448,-0.22665945862455092,-0.11399257153338227
847,-0.3804253120564661,-0.22665945862455092,-0.11399257153338227
848,-0.38028657731728743,-0.22665945862455092,-0.11399257153338227
849,-0.38014784257810874,-0.22665945862455092,-0.08274257153338231
850,-0.38000910783893005,-0.22665945862455092,-0.08274257153338231
851,-0.37987037309975136,-0.22665945862455092,-0.08274257153338231
852,-0.37973163836057267,-0.22665945862455092,-0.08274257153338231
853,-0.379592903621394,-0.22665945862455092,-0.08274257153338231
854,-0.3794541688822153,-0.22665945862455092,-0.08274257153338231
855,-0.3793154341430366,-0.22665945862455092,-0.08274257153338231
856,-0.3791766994038579,-0.22665945862455092,-0.08274257153338231
857,-0.3790379646646792,-0.22665945862455092,-0.08274257153338231
858,-0.3788992299255005,-0.22665945862455092,-0.08274257153338231
859,-0.3787604951863218,-0.22665945862455092,-0.12961757153338227
860,-0.37862176044714313,-0.22665945862455092,-0.12961757153338227
861,-0.3784830257079645,-0.22665945862455092,-0.12961757153338227
862,-0.3783442909687858,-0.22665945862455092,-0.12961757153338227
863,-0.3782055562296071,-0.22665945862455092,-0.12961757153338227
864,-0.3780668214904284,-0.22665945862455092,-0.12961757153338227
865,-0.3779280867512497,-0.22665945862455092,-0.12961757153338227
866,-0.37778935201207103,-0.22665945862455092,-0.12961757153338227
867,-0.37765061727289234,-0.22665945862455092,-0.12961757153338227
868,-0.37751188253371365,-0.22665945862455092,-0.12961757153338227
869,-0.37737314779453496,-0.22665945862455092,-0.1608675715333823
870,-0.37723441305535627,-0.22665945862455092,-0.1608675715333823
871,-0.3770956783161776,-0.22665945862455092,-0.1608675715333823
872,-0.3769569435769989,-0.22665945862455092,-0.1608675715333823
873,-0.3768182088378202,-0.22665945862455092,-0.1608675715333823
874,-0.3766794740986415,-0.22665945862455092,-0.1608675715333823
875,-0.3765407393594628,-0.22665945862455092,-0.1608675715333823
876,-0.3764020046202841,-0.22665945862455092,-0.1608675715333823
877,-0.3762632698811054,-0.22665945862455092,-0.1608675715333823
878,-0.37612453514192673,-0.22665945862455092,-0.1608675715333823
879,-0.37598580040274804,-0.22665945862455092,-0.1608675715333823
880,-0.37584706566356935,-0.22665945862455092,-0.2546175715333823
881,-0.37570833092439065,-0.22665945862455092,-0.2546175715333823
882,-0.37556959618521196,-0.22665945862455092,-0.2546175715333823
883,-0.37543086144603327,-0.22665945862455092,-0.2546175715333823
884,-0.3752921267068546,-0.22665945862455092,-0.2546175715333823
885,-0.3751533919676759,-0.22665945862455092,-0.2546175715333823
886,-0.3750146572284972,-0.22665945862455092,-0.2546175715333823
887,-0.3748759224893185,-0.22665945862455092,-0.2546175715333823
888,-0.3747371877501398,-0.22665945862455092,-0.2546175715333823
889,-0.3745984530109611,-0.22665945862455092,-0.2546175715333823
890,-0.3744597182717824,-0.22665945862455092,-0.2546175715333823
891,-0.37432098353260373,-0.22665945862455092,-0.31711757153338227
892,-0.37418224879342504,-0.22665945862455092,-0.31711757153338227
893,-0.37404351405424635,-0.22665945862455092,-0.31711757153338227
894,-0.37390477931506766,-0.22665945862455092,-0.31711757153338227
895,-0.37376604457588897,-0.22665945862455092,-0.31711757153338227
896,-0.37362730983671033,-0.22665945862455092,-0.31711757153338227
897,-0.37348857509753164,-0.22665945862455092,-0.31711757153338227
898,-0.37334984035835295,-0.22665945862455092,-0.31711757153338227
899,-0.37321110561917425,-0.22665945862455092,-0.31711757153338227
900,-0.37307237087999556,-0.22665945862455092,-0.31711757153338227
901,-0.37293363614081687,-0.22665945862455092,-0.31711757153338227
902,-0.3727949014016382,-0.22665945862455092,-0.31711757153338227
903,-0.3726561666624595,-0.22665945862455092,-0.31711757153338227
904,-0.3725174319232808,-0.22665945862455092,-0.31711757153338227
905,-0.3723786971841021,-0.22665945862455092,-0.31711757153338227
906,-0.3722399624449234,-0.22665945862455092,-0.31711757153338227
907,-0.3721012277057447,-0.22665945862455092,-0.31711757153338227
908,-0.371962492966566,-0.22665945862455092,-0.31711757153338227
909,-0.37182375822738734,-0.22665945862455092,-0.31711757153338227
910,-0.37168502348820864,-0.22665945862455092,-0.31711757153338227
911,-0.37154628874902995,-0.22665945862455092,-0.39524257153338227
912,-0.37140755400985126,-0.22665945862455092,-0.39524257153338227
913,-0.37126881927067257,-0.22665945862455092,-0.39524257153338227
914,-0.3711300845314939,-0.22665945862455092,-0.39524257153338227
915,-0.3709913497923152,-0.22665945862455092,-0.39524257153338227
916,-0.3708526150531365,-0.22665945862455092,-0.39524257153338227
917,-0.3707138803139578,-0.22665945862455092,-0.39524257153338227
918,-0.3705751455747791,-0.22665945862455092,-0.39524257153338227
919,-0.3704364108356004,-0.22665945862455092,-0.39524257153338227
920,-0.3702976760964217,-0.22665945862455092,-0.39524257153338227
921,-0.37015894135724303,-0.22665945862455092,-0.39524257153338227
922,-0.37002020661806434,-0.22665945862455092,-0.39524257153338227
923,-0.36988147187888565,-0.22665945862455092,-0.39524257153338227
924,-0.36974273713970696,-0.22665945862455092,-0.39524257153338227
925,-0.36960400240052826,-0.22665945862455092,-0.39524257153338227
926,-0.3694652676613496,-0.22665945862455092,-0.39524257153338227
927,-0.3693265329221709,-0.22665945862455092,-0.39524257153338227
928,-0.3691877981829922,-0.22665945862455092,-0.39524257153338227
929,-0.3690490634438135,-0.22665945862455092,-0.39524257153338227
930,-0.3689103287046348,-0.22665945862455092,-0.39524257153338227
931,-0.36877159396545617,-0.22665945862455092,-0.39524257153338227
932,-0.3686328592262775,-0.22665945862455092,-0.39524257153338227
933,-0.3684941244870988,-0.22665945862455092,-0.39524257153338227
934,-0.3683553897479201,-0.22665945862455092,-0.39524257153338227
935,-0.3682166550087414,-0.22665945862455092,-0.39524257153338227
936,-0.3680779202695627,-0.22665945862455092,-0.39524257153338227
937,-0.367939185530384,-0.22665945862455092,-0.39524257153338227
938,-0.3678004507912053,-0.22665945862455092,-0.39524257153338227
939,-0.36766171605202663,-0.22665945862455092,-0.39524257153338227
940,-0.36752298131284794,-0.22665945862455092,-0.39524257153338227
941,-0.36738424657366925,-0.22665945862455092,-0.39524257153338227
942,-0.36724551183449056,-0.22665945862455092,-0.44211757153338227
943,-0.36710677709531186,-0.22665945862455092,-0.44211757153338227
944,-0.3669680423561332,-0.22665945862455092,-0.44211757153338227
945,-0.3668293076169545,-0.22665945862455092,-0.44211757153338227
946,-0.3666905728777758,-0.22665945862455092,-0.44211757153338227
947,-0.3665518381385971,-0.22665945862455092,-0.44211757153338227
948,-0.3664131033994184,-0.22665945862455092,-0.44211757153338227
949,-0.3662743686602397,-0.22665945862455092,-0.44211757153338227
950,-0.366135633921061,-0.22665945862455092,-0.44211757153338227
951,-0.36599689918188233,-0.22665945862455092,-0.44211757153338227
952,-0.36585816444270364,-0.22665945862455092,-0.39524257153338227
953,-0.36571942970352495,-0.22665945862455092,-0.39524257153338227
954,-0.36558069496434625,-0.22665945862455092,-0.39524257153338227
955,-0.36544196022516756,-0.22665945862455092,-0.39524257153338227
956,-0.36530322548598887,-0.22665945862455092,-0.39524257153338227
957,-0.3651644907468102,-0.22665945862455092,-0.39524257153338227
958,-0.3650257560076315,-0.22665945862455092,-0.39524257153338227
959,-0.3648870212684528,-0.22665945862455092,-0.39524257153338227
960,-0.3647482865292741,-0.22665945862455092,-0.39524257153338227
961,-0.3646095517900954,-0.22665945862455092,-0.39524257153338227
962,-0.3644708170509167,-0.22665945862455092,-0.39524257153338227
963,-0.364332082311738,-0.22665945862455092,-0.42649257153338227
964,-0.36419334757255933,-0.22665945862455092,-0.42649257153338227
965,-0.3640546128333807,-0.22665945862455092,-0.42649257153338227
966,-0.363915878094202,-0.22665945862455092,-0.42649257153338227
967,-0.3637771433550233,-0.22665945862455092,-0.42649257153338227
968,-0.3636384086158446,-0.22665945862455092,-0.42649257153338227
969,-0.36349967387666593,-0.22665945862455092,-0.42649257153338227
970,-0.36336093913748724,-0.22665945862455092,-0.42649257153338227
971,-0.36322220439830855,-0.22665945862455092,-0.42649257153338227
972,-0.36308346965912985,-0.22665945862455092,-0.42649257153338227
973,-0.36294473491995116,-0.22665945862455092,-0.37961757153338227
974,-0.36280600018077247,-0.22665945862455092,-0.37961757153338227
975,-0.3626672654415938,-0.22665945862455092,-0.37961757153338227
976,-0.3625285307024151,-0.22665945862455092,-0.37961757153338227
977,-0.3623897959632364,-0.22665945862455092,-0.37961757153338227
978,-0.3622510612240577,-0.22665945862455092,-0.37961757153338227
979,-0.362112326484879,-0.22665945862455092,-0.37961757153338227
980,-0.3619735917457003,-0.22665945862455092,-0.37961757153338227
981,-0.3618348570065216,-0.22665945862455092,-0.37961757153338227
982,-0.36169612226734293,-0.22665945862455092,-0.37961757153338227
983,-0.36155738752816424,-0.22665945862455092,-0.36399257153338227
984,-0.36141865278898555,-0.22665945862455092,-0.36399257153338227
985,-0.36127991804980686,-0.22665945862455092,-0.36399257153338227
986,-0.36114118331062817,-0.22665945862455092,-0.36399257153338227
987,-0.3610024485714495,-0.22665945862455092,-0.36399257153338227
988,-0.3608637138322708,-0.22665945862455092,-0.36399257153338227
989,-0.3607249790930921,-0.22665945862455092,-0.36399257153338227
990,-0.3605862443539134,-0.22665945862455092,-0.36399257153338227
991,-0.3604475096147347,-0.22665945862455092,-0.36399257153338227
992,-0.360308774875556,-0.22665945862455092,-0.36399257153338227
993,-0.3601700401363773,-0.22665945862455092,-0.34836757153338227
994,-0.36003130539719863,-0.22665945862455092,-0.34836757153338227
995,-0.35989257065801994,-0.22665945862455092,-0.34836757153338227
996,-0.35975383591884125,-0.22665945862455092,-0.34836757153338227
997,-0.35961510117966256,-0.22665945862455092,-0.34836757153338227
998,-0.35947636644048386,-0.22665945862455092,-0.34836757153338227
999,-0.35933763170130517,-0.22665945862455092,-0.34836757153338227
1000,-0.35919889696212653,-0.22665945862455092,-0.34836757153338227
1001,-0.35906016222294784,-0.22665945862455092,-0.34836757153338227
1002,-0.35892142748376915,-0.22665945862455092,-0.34836757153338227
1003,-0.35878269274459046,-0.22665945862455092,-0.31711757153338227
1004,-0.35864395800541177,-0.22665945862455092,-0.31711757153338227
1005,-0.3585052232662331,-0.22665945862455092,-0.31711757153338227
1006,-0.3583664885270544,-0.22665945862455092,-0.31711757153338227
1007,-0.3582277537878757,-0.22665945862455092,-0.31711757153338227
1008,-0.358089019048697,-0.22665945862455092,-0.31711757153338227
1009,-0.3579502843095183,-0.22665945862455092,-0.31711757153338227
1010,-0.3578115495703396,-0.22665945862455092,-0.31711757153338227
1011,-0.3576728148311609,-0.22665945862455092,-0.31711757153338227
1012,-0.35753408009198223,-0.22665945862455092,-0.31711757153338227
1013,-0.35739534535280354,-0.22665945862455092,-0.30149257153338227
1014,-0.35725661061362485,-0.22665945862455092,-0.30149257153338227
1015,-0.35711787587444616,-0.22665945862455092,-0.30149257153338227
1016,-0.35697914113526746,-0.22665945862455092,-0.30149257153338227
1017,-0.35684040639608877,-0.22665945862455092,-0.30149257153338227
1018,-0.3567016716569101,-0.22665945862455092,-0.30149257153338227
1019,-0.3565629369177314,-0.22665945862455092,-0.30149257153338227
1020,-0.3564242021785527,-0.22665945862455092,-0.30149257153338227
1021,-0.356285467439374,-0.22665945862455092,-0.30149257153338227
1022,-0.3561467327001953,-0.22665945862455092,-0.30149257153338227
1023,-0.3560079979610166,-0.22665945862455092,-0.30149257153338227
1024,-0.35586926322183793,-0.22665945862455092,-0.27024257153338227
1025,-0.35573052848265924,-0.22665945862455092,-0.27024257153338227
1026,-0.35559179374348054,-0.22665945862455092,-0.27024257153338227
1027,-0.35545305900430185,-0.22665945862455092,-0.27024257153338227
1028,-0.35531432426512316,-0.22665945862455092,-0.27024257153338227
1029,-0.35517558952594447,-0.22665945862455092,-0.27024257153338227
1030,-0.3550368547867658,-0.22665945862455092,-0.27024257153338227
1031,-0.3548981200475871,-0.22665945862455092,-0.27024257153338227
1032,-0.3547593853084084,-0.22665945862455092,-0.27024257153338227
1033,-0.3546206505692297,-0.22665945862455092,-0.27024257153338227
1034,-0.35448191583005106,-0.22665945862455092,-0.2546175715333823
1035,-0.3543431810908724,-0.22665945862455092,-0.2546175715333823
1036,-0.3542044463516937,-0.22665945862455092,-0.2546175715333823
1037,-0.354065711612515,-0.22665945862455092,-0.2546175715333823
1038,-0.3539269768733363,-0.22665945862455092,-0.2546175715333823
1039,-0.3537882421341576,-0.22665945862455092,-0.2546175715333823
1040,-0.3536495073949789,-0.22665945862455092,-0.2546175715333823
1041,-0.3535107726558002,-0.22665945862455092,-0.2546175715333823
1042,-0.35337203791662153,-0.22665945862455092,-0.2546175715333823
1043,-0.35323330317744284,-0.22665945862455092,-0.2546175715333823
1044,-0.35309456843826414,-0.22665945862455092,-0.2546175715333823
1045,-0.35295583369908545,-0.22665945862455092,-0.28586757153338227
1046,-0.35281709895990676,-0.22665945862455092,-0.28586757153338227
1047,-0.35267836422072807,-0.22665945862455092,-0.28586757153338227
1048,-0.3525396294815494,-0.22665945862455092,-0.28586757153338227
1049,-0.3524008947423707,-0.22665945862455092,-0.28586757153338227
1050,-0.352262160003192,-0.22665945862455092,-0.28586757153338227
1051,-0.3521234252640133,-0.22665945862455092,-0.28586757153338227
1052,-0.3519846905248346,-0.22665945862455092,-0.28586757153338227
1053,-0.3518459557856559,-0.22665945862455092,-0.28586757153338227
1054,-0.3517072210464772,-0.22665945862455092,-0.28586757153338227
1055,-0.35156848630729853,-0.22665945862455092,-0.3327425715333823
1056,-0.35142975156811984,-0.22665945862455092,-0.3327425715333823
1057,-0.35129101682894115,-0.22665945862455092,-0.3327425715333823
1058,-0.35115228208976246,-0.22665945862455092,-0.3327425715333823
1059,-0.35101354735058377,-0.22665945862455092,-0.3327425715333823
1060,-0.3508748126114051,-0.22665945862455092,-0.3327425715333823
1061,-0.3507360778722264,-0.22665945862455092,-0.3327425715333823
1062,-0.3505973431330477,-0.22665945862455092,-0.3327425715333823
1063,-0.350458608393869,-0.22665945862455092,-0.3327425715333823
1064,-0.3503198736546903,-0.22665945862455092,-0.3327425715333823
1065,-0.3501811389155116,-0.22665945862455092,-0.27024257153338227
1066,-0.3500424041763329,-0.22665945862455092,-0.27024257153338227
1067,-0.34990366943715423,-0.22665945862455092,-0.27024257153338227
1068,-0.34976493469797554,-0.22665945862455092,-0.27024257153338227
1069,-0.3496261999587969,-0.22665945862455092,-0.27024257153338227
1070,-0.3494874652196182,-0.22665945862455092,-0.27024257153338227
1071,-0.3493487304804395,-0.22665945862455092,-0.27024257153338227
1072,-0.3492099957412608,-0.22665945862455092,-0.27024257153338227
1073,-0.34907126100208213,-0.22665945862455092,-0.27024257153338227
1074,-0.34893252626290344,-0.22665945862455092,-0.27024257153338227
1075,-0.34879379152372475,-0.22665945862455092,-0.20774257153338227
1076,-0.34865505678454606,-0.22665945862455092,-0.20774257153338227
1077,-0.34851632204536737,-0.22665945862455092,-0.20774257153338227
1078,-0.3483775873061887,-0.22665945862455092,-0.20774257153338227
1079,-0.34823885256701,-0.22665945862455092,-0.20774257153338227
1080,-0.3481001178278313,-0.22665945862455092,-0.20774257153338227
1081,-0.3479613830886526,-0.22665945862455092,-0.20774257153338227
1082,-0.3478226483494739,-0.22665945862455092,-0.20774257153338227
1083,-0.3476839136102952,-0.22665945862455092,-0.20774257153338227
1084,-0.3475451788711165,-0.22665945862455092,-0.20774257153338227
1085,-0.34740644413193783,-0.22665945862455092,-0.17649257153338233
1086,-0.34726770939275914,-0.22665945862455092,-0.17649257153338233
1087,-0.34712897465358045,-0.22665945862455092,-0.17649257153338233
1088,-0.34699023991440175,-0.22665945862455092,-0.17649257153338233
1101,-0.34518668830507876,-0.01613314283507724,-0.1452425715333823
1102,-0.34504795356590007,-0.01613314283507724,-0.1452425715333823
1103,-0.3449092188267214,-0.01613314283507724,-0.1452425715333823
1104,-0.34477048408754274,-0.01613314283507724,-0.1452425715333823
1105,-0.34463174934836405,-0.01613314283507724,-0.1452425715333823
1106,-0.34449301460918536,-0.01613314283507724,-0.08274257153338231
1107,-0.34435427987000666,-0.01613314283507724,-0.08274257153338231
1108,-0.34421554513082797,-0.01613314283507724,-0.08274257153338231
1109,-0.3440768103916493,-0.01613314283507724,-0.08274257153338231
1110,-0.3439380756524706,-0.01613314283507724,-0.08274257153338231
1111,-0.3437993409132919,-0.01613314283507724,-0.08274257153338231
1112,-0.3436606061741132,-0.01613314283507724,-0.08274257153338231
1113,-0.3435218714349345,-0.01613314283507724,-0.08274257153338231
1114,-0.3433831366957558,-0.01613314283507724,-0.08274257153338231
1115,-0.3432444019565771,-0.01613314283507724,-0.08274257153338231
1116,-0.34310566721739844,-0.01613314283507724,-0.0671175715333823
1117,-0.34296693247821974,-0.01613314283507724,-0.0671175715333823
1118,-0.34282819773904105,-0.01613314283507724,-0.0671175715333823
1119,-0.34268946299986236,-0.01613314283507724,-0.0671175715333823
1120,-0.34255072826068367,-0.01613314283507724,-0.0671175715333823
1121,-0.342411993521505,-0.01613314283507724,-0.0671175715333823
1122,-0.3422732587823263,-0.01613314283507724,-0.0671175715333823
1123,-0.3421345240431476,-0.01613314283507724,-0.0671175715333823
1124,-0.3419957893039689,-0.01613314283507724,-0.0671175715333823
1125,-0.3418570545647902,-0.01613314283507724,-0.0671175715333823
1126,-0.3417183198256115,-0.01613314283507724,-0.0671175715333823
1127,-0.3415795850864328,-0.01613314283507724,-0.05149257153338235
1128,-0.34144085034725413,-0.01613314283507724,-0.05149257153338235
1129,-0.34130211560807544,-0.01613314283507724,-0.05149257153338235
1130,-0.34116338086889675,-0.01613314283507724,-0.05149257153338235
1131,-0.34102464612971806,-0.01613314283507724,-0.05149257153338235
1132,-0.34088591139053936,-0.01613314283507724,-0.05149257153338235
1133,-0.3407471766513607,-0.01613314283507724,-0.05149257153338235
1134,-0.340608441912182,-0.01613314283507724,-0.05149257153338235
1135,-0.3404697071730033,-0.01613314283507724,-0.05149257153338235
1136,-0.3403309724338246,-0.01613314283507724,-0.05149257153338235
1137,-0.3401922376946459,-0.01613314283507724,-0.08274257153338231
1138,-0.34005350295546727,-0.01613314283507724,-0.08274257153338231
1139,-0.3399147682162886,-0.01613314283507724,-0.08274257153338231
1140,-0.3397760334771099,-0.01613314283507724,-0.08274257153338231
1141,-0.3396372987379312,-0.01613314283507724,-0.08274257153338231
1142,-0.3394985639987525,-0.01613314283507724,-0.08274257153338231
1143,-0.3393598292595738,-0.01613314283507724,-0.08274257153338231
1144,-0.3392210945203951,-0.01613314283507724,-0.08274257153338231
1145,-0.3390823597812164,-0.01613314283507724,-0.08274257153338231
1146,-0.33894362504203773,-0.01613314283507724,-0.08274257153338231
1147,-0.33880489030285904,-0.01613314283507724,-0.08274257153338231
1148,-0.33866615556368035,-0.01613314283507724,-0.1608675715333823
1149,-0.33852742082450166,-0.01613314283507724,-0.1608675715333823
1150,-0.33838868608532297,-0.01613314283507724,-0.1608675715333823
1151,-0.3382499513461443,-0.01613314283507724,-0.1608675715333823
1152,-0.3381112166069656,-0.01613314283507724,-0.1608675715333823
1153,-0.3379724818677869,-0.01613314283507724,-0.1608675715333823
1154,-0.3378337471286082,-0.01613314283507724,-0.1608675715333823
1155,-0.3376950123894295,-0.01613314283507724,-0.1608675715333823
1156,-0.3375562776502508,-0.01613314283507724,-0.1608675715333823
1157,-0.3374175429110721,-0.01613314283507724,-0.1608675715333823
1158,-0.33727880817189343,-0.01613314283507724,-0.2233675715333823
1159,-0.33714007343271474,-0.01613314283507724,-0.2233675715333823
1160,-0.33700133869353605,-0.01613314283507724,-0.2233675715333823
1161,-0.33686260395435735,-0.01613314283507724,-0.2233675715333823
1162,-0.33672386921517866,-0.01613314283507724,-0.2233675715333823
1163,-0.33658513447599997,-0.01613314283507724,-0.2233675715333823
1164,-0.3364463997368213,-0.01613314283507724,-0.2233675715333823
1165,-0.3363076649976426,-0.01613314283507724,-0.2233675715333823
1166,-0.3361689302584639,-0.01613314283507724,-0.2233675715333823
1167,-0.3360301955192852,-0.01613314283507724,-0.2233675715333823
1168,-0.3358914607801065,-0.01613314283507724,-0.2389925715333823
1169,-0.3357527260409278,-0.01613314283507724,-0.2389925715333823
1170,-0.3356139913017491,-0.01613314283507724,-0.2389925715333823
1171,-0.33547525656257043,-0.01613314283507724,-0.2389925715333823
1172,-0.33533652182339174,-0.01613314283507724,-0.2389925715333823
1173,-0.3351977870842131,-0.01613314283507724,-0.2389925715333823
1174,-0.3350590523450344,-0.01613314283507724,-0.2389925715333823
1175,-0.3349203176058557,-0.01613314283507724,-0.2389925715333823
1176,-0.33478158286667703,-0.01613314283507724,-0.2389925715333823
1177,-0.33464284812749834,-0.01613314283507724,-0.2389925715333823
1178,-0.33450411338831965,-0.01613314283507724,-0.2389925715333823
1179,-0.33436537864914095,-0.01613314283507724,-0.28586757153338227
1180,-0.33422664390996226,-0.01613314283507724,-0.28586757153338227
1181,-0.33408790917078357,-0.01613314283507724,-0.28586757153338227
1182,-0.3339491744316049,-0.01613314283507724,-0.28586757153338227
1183,-0.3338104396924262,-0.01613314283507724,-0.28586757153338227
1184,-0.3336717049532475,-0.01613314283507724,-0.28586757153338227
1185,-0.3335329702140688,-0.01613314283507724,-0.28586757153338227
1186,-0.3333942354748901,-0.01613314283507724,-0.28586757153338227
1187,-0.3332555007357114,-0.01613314283507724,-0.28586757153338227
1188,-0.3331167659965327,-0.01613314283507724,-0.28586757153338227
1189,-0.33297803125735403,-0.01613314283507724,-0.28586757153338227
1190,-0.33283929651817534,-0.01613314283507724,-0.28586757153338227
1191,-0.33270056177899665,-0.01613314283507724,-0.28586757153338227
1192,-0.33256182703981796,-0.01613314283507724,-0.28586757153338227
1193,-0.33242309230063927,-0.01613314283507724,-0.28586757153338227
1194,-0.3322843575614606,-0.01613314283507724,-0.28586757153338227
1195,-0.3321456228222819,-0.01613314283507724,-0.28586757153338227
1196,-0.3320068880831032,-0.01613314283507724,-0.28586757153338227
1197,-0.3318681533439245,-0.01613314283507724,-0.28586757153338227
1198,-0.3317294186047458,-0.01613314283507724,-0.28586757153338227
1199,-0.3315906838655671,-0.01613314283507724,-0.28586757153338227
1200,-0.3314519491263884,-0.01613314283507724,-0.28586757153338227
1201,-0.33131321438720973,-0.01613314283507724,-0.28586757153338227
1202,-0.33117447964803104,-0.01613314283507724,-0.28586757153338227
1203,-0.33103574490885235,-0.01613314283507724,-0.28586757153338227
1204,-0.33089701016967366,-0.01613314283507724,-0.28586757153338227
1205,-0.33075827543049496,-0.01613314283507724,-0.28586757153338227
1206,-0.33061954069131627,-0.01613314283507724,-0.28586757153338227
1207,-0.3304808059521376,-0.01613314283507724,-0.28586757153338227
1208,-0.33034207121295894,-0.01613314283507724,-0.28586757153338227
1209,-0.33020333647378025,-0.01613314283507724,-0.28586757153338227
1210,-0.33006460173460156,-0.01613314283507724,-0.28586757153338227
1211,-0.32992586699542287,-0.01613314283507724,-0.28586757153338227
1212,-0.3297871322562442,-0.01613314283507724,-0.28586757153338227
1213,-0.3296483975170655,-0.01613314283507724,-0.28586757153338227
1214,-0.3295096627778868,-0.01613314283507724,-0.28586757153338227
1215,-0.3293709280387081,-0.01613314283507724,-0.28586757153338227
1216,-0.3292321932995294,-0.01613314283507724,-0.28586757153338227
1217,-0.3290934585603507,-0.01613314283507724,-0.28586757153338227
1218,-0.328954723821172,-0.01613314283507724,-0.28586757153338227
1219,-0.32881598908199333,-0.01613314283507724,-0.28586757153338227
1220,-0.32867725434281464,-0.01613314283507724,-0.28586757153338227
1221,-0.32853851960363595,-0.01613314283507724,-0.28586757153338227
1222,-0.32839978486445726,-0.01613314283507724,-0.28586757153338227
1223,-0.32826105012527856,-0.01613314283507724,-0.28586757153338227
1224,-0.32812231538609987,-0.01613314283507724,-0.28586757153338227
1225,-0.3279835806469212,-0.01613314283507724,-0.28586757153338227
1226,-0.3278448459077425,-0.01613314283507724,-0.28586757153338227
1227,-0.3277061111685638,-0.01613314283507724,-0.28586757153338227
1228,-0.3275673764293851,-0.01613314283507724,-0.28586757153338227
1229,-0.3274286416902064,-0.01613314283507724,-0.30149257153338227
1230,-0.3272899069510277,-0.01613314283507724,-0.30149257153338227
1231,-0.32715117221184903,-0.01613314283507724,-0.30149257153338227
1232,-0.32701243747267034,-0.01613314283507724,-0.30149257153338227
1233,-0.32687370273349164,-0.01613314283507724,-0.30149257153338227
1234,-0.32673496799431295,-0.01613314283507724,-0.30149257153338227
1235,-0.32659623325513426,-0.01613314283507724,-0.30149257153338227
1236,-0.32645749851595557,-0.01613314283507724,-0.30149257153338227
1237,-0.3263187637767769,-0.01613314283507724,-0.30149257153338227
1238,-0.3261800290375982,-0.01613314283507724,-0.30149257153338227
1239,-0.3260412942984195,-0.01613314283507724,-0.30149257153338227
1240,-0.3259025595592408,-0.01613314283507724,-0.31711757153338227
1241,-0.3257638248200621,-0.01613314283507724,-0.31711757153338227
1242,-0.3256250900808835,-0.01613314283507724,-0.31711757153338227
1243,-0.3254863553417048,-0.01613314283507724,-0.31711757153338227
1244,-0.3253476206025261,-0.01613314283507724,-0.31711757153338227
1245,-0.3252088858633474,-0.01613314283507724,-0.31711757153338227
1246,-0.3250701511241687,-0.01613314283507724,-0.31711757153338227
1247,-0.32493141638499,-0.01613314283507724,-0.31711757153338227
1248,-0.3247926816458113,-0.01613314283507724,-0.31711757153338227
1249,-0.32465394690663263,-0.01613314283507724,-0.31711757153338227
1250,-0.32451521216745394,-0.01613314283507724,-0.31711757153338227
1251,-0.32437647742827524,-0.01613314283507724,-0.31711757153338227
1252,-0.32423774268909655,-0.01613314283507724,-0.31711757153338227
1253,-0.32409900794991786,-0.01613314283507724,-0.31711757153338227
1254,-0.32396027321073917,-0.01613314283507724,-0.31711757153338227
1255,-0.3238215384715605,-0.01613314283507724,-0.31711757153338227
1256,-0.3236828037323818,-0.01613314283507724,-0.31711757153338227
1257,-0.3235440689932031,-0.01613314283507724,-0.31711757153338227
1258,-0.3234053342540244,-0.01613314283507724,-0.31711757153338227
1259,-0.3232665995148457,-0.01613314283507724,-0.31711757153338227
1260,-0.323127864775667,-0.01613314283507724,-0.31711757153338227
1261,-0.3229891300364883,-0.01613314283507724,-0.31711757153338227
1262,-0.32285039529730963,-0.01613314283507724,-0.31711757153338227
1263,-0.32271166055813094,-0.01613314283507724,-0.31711757153338227
1264,-0.32257292581895225,-0.01613314283507724,-0.31711757153338227
1265,-0.32243419107977356,-0.01613314283507724,-0.31711757153338227
1266,-0.32229545634059487,-0.01613314283507724,-0.31711757153338227
1267,-0.3221567216014162,-0.01613314283507724,-0.31711757153338227
1268,-0.3220179868622375,-0.01613314283507724,-0.31711757153338227
1269,-0.3218792521230588,-0.01613314283507724,-0.31711757153338227
1270,-0.3217405173838801,-0.01613314283507724,-0.31711757153338227
1271,-0.3216017826447014,-0.01613314283507724,-0.3327425715333823
1272,-0.3214630479055227,-0.01613314283507724,-0.3327425715333823
1273,-0.321324313166344,-0.01613314283507724,-0.3327425715333823
1274,-0.32118557842716533,-0.01613314283507724,-0.3327425715333823
1275,-0.32104684368798664,-0.01613314283507724,-0.3327425715333823
1276,-0.32090810894880795,-0.01613314283507724,-0.3327425715333823
1277,-0.3207693742096293,-0.01613314283507724,-0.3327425715333823
1278,-0.3206306394704506,-0.01613314283507724,-0.3327425715333823
1279,-0.3204919047312719,-0.01613314283507724,-0.3327425715333823
1280,-0.32035316999209323,-0.01613314283507724,-0.3327425715333823
1281,-0.32021443525291454,-0.01613314283507724,-0.3327425715333823
1282,-0.32007570051373585,-0.01613314283507724,-0.3327425715333823
1283,-0.31993696577455716,-0.01613314283507724,-0.3327425715333823
1284,-0.31979823103537847,-0.01613314283507724,-0.3327425715333823
1285,-0.3196594962961998,-0.01613314283507724,-0.3327425715333823
1286,-0.3195207615570211,-0.01613314283507724,-0.3327425715333823
1287,-0.3193820268178424,-0.01613314283507724,-0.3327425715333823
1288,-0.3192432920786637,-0.01613314283507724,-0.3327425715333823
1289,-0.319104557339485,-0.01613314283507724,-0.3327425715333823
1290,-0.3189658226003063,-0.01613314283507724,-0.3327425715333823
1291,-0.3188270878611276,-0.01613314283507724,-0.3327425715333823
1292,-0.31868835312194893,-0.01613314283507724,-0.3327425715333823
1293,-0.31854961838277024,-0.01613314283507724,-0.3327425715333823
1294,-0.31841088364359155,-0.01613314283507724,-0.3327425715333823
1295,-0.31827214890441285,-0.01613314283507724,-0.3327425715333823
1296,-0.31813341416523416,-0.01613314283507724,-0.3327425715333823
1297,-0.31799467942605547,-0.01613314283507724,-0.3327425715333823
1298,-0.3178559446868768,-0.01613314283507724,-0.3327425715333823
1299,-0.3177172099476981,-0.01613314283507724,-0.3327425715333823
1300,-0.3175784752085194,-0.01613314283507724,-0.3327425715333823
1301,-0.3174397404693407,-0.01613314283507724,-0.31711757153338227
1302,-0.317301005730162,-0.01613314283507724,-0.31711757153338227
1303,-0.3171622709909833,-0.01613314283507724,-0.31711757153338227
1304,-0.3170235362518046,-0.01613314283507724,-0.31711757153338227
1305,-0.31688480151262594,-0.01613314283507724,-0.31711757153338227
1306,-0.31674606677344724,-0.01613314283507724,-0.31711757153338227
1307,-0.31660733203426855,-0.01613314283507724,-0.31711757153338227
1308,-0.31646859729508986,-0.01613314283507724,-0.31711757153338227
1309,-0.31632986255591117,-0.01613314283507724,-0.31711757153338227
1310,-0.3161911278167325,-0.01613314283507724,-0.31711757153338227
1311,-0.3160523930775538,-0.01613314283507724,-0.31711757153338227
1312,-0.31591365833837515,-0.01613314283507724,-0.28586757153338227
1313,-0.31577492359919646,-0.01613314283507724,-0.28586757153338227
1314,-0.31563618886001776,-0.01613314283507724,-0.28586757153338227
1315,-0.31549745412083907,-0.01613314283507724,-0.28586757153338227
1316,-0.3153587193816604,-0.01613314283507724,-0.28586757153338227
1317,-0.3152199846424817,-0.01613314283507724,-0.28586757153338227
1318,-0.315081249903303,-0.01613314283507724,-0.28586757153338227
1319,-0.3149425151641243,-0.01613314283507724,-0.28586757153338227
1320,-0.3148037804249456,-0.01613314283507724,-0.28586757153338227
1321,-0.3146650456857669,-0.01613314283507724,-0.28586757153338227
1322,-0.31452631094658823,-0.01613314283507724,-0.30149257153338227
1323,-0.31438757620740954,-0.01613314283507724,-0.30149257153338227
1324,-0.31424884146823084,-0.01613314283507724,-0.30149257153338227
1325,-0.31411010672905215,-0.01613314283507724,-0.30149257153338227
1326,-0.31397137198987346,-0.01613314283507724,-0.30149257153338227
1327,-0.31383263725069477,-0.01613314283507724,-0.30149257153338227
1328,-0.3136939025115161,-0.01613314283507724,-0.30149257153338227
1329,-0.3135551677723374,-0.01613314283507724,-0.30149257153338227
1330,-0.3134164330331587,-0.01613314283507724,-0.30149257153338227
1331,-0.31327769829398,-0.01613314283507724,-0.30149257153338227
1332,-0.3131389635548013,-0.01613314283507724,-0.2546175715333823
1333,-0.3130002288156226,-0.01613314283507724,-0.2546175715333823
1334,-0.3128614940764439,-0.01613314283507724,-0.2546175715333823
1335,-0.31272275933726523,-0.01613314283507724,-0.2546175715333823
1336,-0.31258402459808654,-0.01613314283507724,-0.2546175715333823
1337,-0.31244528985890785,-0.01613314283507724,-0.2546175715333823
1338,-0.31230655511972916,-0.01613314283507724,-0.2546175715333823
1339,-0.31216782038055046,-0.01613314283507724,-0.2546175715333823
1340,-0.3120290856413718,-0.01613314283507724,-0.2546175715333823
1341,-0.3118903509021931,-0.01613314283507724,-0.2546175715333823
1342,-0.3117516161630144,-0.01613314283507724,-0.2546175715333823
1343,-0.3116128814238357,-0.01613314283507724,-0.2546175715333823
1344,-0.311474146684657,-0.01613314283507724,-0.2546175715333823
1345,-0.3113354119454783,-0.01613314283507724,-0.2546175715333823
1346,-0.3111966772062997,-0.01613314283507724,-0.2546175715333823
1347,-0.311057942467121,-0.01613314283507724,-0.2546175715333823
1348,-0.3109192077279423,-0.01613314283507724,-0.2546175715333823
1349,-0.3107804729887636,-0.01613314283507724,-0.2546175715333823
1350,-0.3106417382495849,-0.01613314283507724,-0.2546175715333823
1351,-0.3105030035104062,-0.01613314283507724,-0.2546175715333823
1352,-0.3103642687712275,-0.01613314283507724,-0.2546175715333823
1353,-0.31022553403204883,-0.01613314283507724,-0.2389925715333823
1354,-0.31008679929287014,-0.01613314283507724,-0.2389925715333823
1355,-0.30994806455369145,-0.01613314283507724,-0.2389925715333823
1356,-0.30980932981451276,-0.01613314283507724,-0.2389925715333823
1357,-0.30967059507533407,-0.01613314283507724,-0.2389925715333823
1358,-0.3095318603361554,-0.01613314283507724,-0.2389925715333823
1359,-0.3093931255969767,-0.01613314283507724,-0.2389925715333823
1360,-0.309254390857798,-0.01613314283507724,-0.2389925715333823
1361,-0.3091156561186193,-0.01613314283507724,-0.2389925715333823
1362,-0.3089769213794406,-0.01613314283507724,-0.2389925715333823
1363,-0.3088381866402619,-0.01613314283507724,-0.2389925715333823
1364,-0.3086994519010832,-0.01613314283507724,-0.2389925715333823
1365,-0.30856071716190453,-0.01613314283507724,-0.2389925715333823
1366,-0.30842198242272584,-0.01613314283507724,-0.2389925715333823
1367,-0.30828324768354715,-0.01613314283507724,-0.2389925715333823
1368,-0.30814451294436845,-0.01613314283507724,-0.2389925715333823
1369,-0.30800577820518976,-0.01613314283507724,-0.2389925715333823
1370,-0.30786704346601107,-0.01613314283507724,-0.2389925715333823
1371,-0.3077283087268324,-0.01613314283507724,-0.2389925715333823
1372,-0.3075895739876537,-0.01613314283507724,-0.2389925715333823
1373,-0.307450839248475,-0.01613314283507724,-0.2546175715333823
1374,-0.3073121045092963,-0.01613314283507724,-0.2546175715333823
1375,-0.3071733697701176,-0.01613314283507724,-0.2546175715333823
1376,-0.3070346350309389,-0.01613314283507724,-0.2546175715333823
1377,-0.3068959002917602,-0.01613314283507724,-0.2546175715333823
1378,-0.30675716555258153,-0.01613314283507724,-0.2546175715333823
1379,-0.30661843081340284,-0.01613314283507724,-0.2546175715333823
1380,-0.30647969607422415,-0.01613314283507724,-0.2546175715333823
1381,-0.3063409613350455,-0.01613314283507724,-0.2546175715333823
1382,-0.3062022265958668,-0.01613314283507724,-0.2546175715333823
1383,-0.30606349185668813,-0.01613314283507724,-0.2546175715333823
1384,-0.30592475711750944,-0.01613314283507724,-0.27024257153338227
1385,-0.30578602237833075,-0.01613314283507724,-0.27024257153338227
1386,-0.30564728763915205,-0.01613314283507724,-0.27024257153338227
1387,-0.30550855289997336,-0.01613314283507724,-0.27024257153338227
1388,-0.30536981816079467,-0.01613314283507724,-0.27024257153338227
1389,-0.305231083421616,-0.01613314283507724,-0.27024257153338227
1390,-0.3050923486824373,-0.01613314283507724,-0.27024257153338227
1405,-0.3030113275947569,-0.1740278796771825,-0.2546175715333823
1406,-0.3028725928555782,-0.1740278796771825,-0.2546175715333823
1407,-0.3027338581163995,-0.1740278796771825,-0.2546175715333823
1408,-0.30259512337722083,-0.1740278796771825,-0.2546175715333823
1409,-0.30245638863804214,-0.1740278796771825,-0.2546175715333823
1410,-0.30231765389886345,-0.1740278796771825,-0.2546175715333823
1411,-0.30217891915968476,-0.1740278796771825,-0.2546175715333823
1412,-0.30204018442050606,-0.1740278796771825,-0.2546175715333823
1413,-0.30190144968132737,-0.1740278796771825,-0.2546175715333823
1414,-0.3017627149421487,-0.1740278796771825,-0.31711757153338227
1415,-0.30162398020297,-0.1740278796771825,-0.31711757153338227
1416,-0.30148524546379135,-0.1740278796771825,-0.31711757153338227
1417,-0.30134651072461266,-0.1740278796771825,-0.31711757153338227
1418,-0.30120777598543397,-0.1740278796771825,-0.31711757153338227
1419,-0.3010690412462553,-0.1740278796771825,-0.31711757153338227
1420,-0.3009303065070766,-0.1740278796771825,-0.31711757153338227
1421,-0.3007915717678979,-0.1740278796771825,-0.31711757153338227
1422,-0.3006528370287192,-0.1740278796771825,-0.31711757153338227
1423,-0.3005141022895405,-0.1740278796771825,-0.31711757153338227
1424,-0.3003753675503618,-0.1740278796771825,-0.27024257153338227
1425,-0.3002366328111831,-0.1740278796771825,-0.27024257153338227
1426,-0.30009789807200443,-0.1740278796771825,-0.27024257153338227
1427,-0.29995916333282574,-0.1740278796771825,-0.27024257153338227
1428,-0.29982042859364705,-0.1740278796771825,-0.27024257153338227
1429,-0.29968169385446836,-0.1740278796771825,-0.27024257153338227
1430,-0.29954295911528966,-0.1740278796771825,-0.27024257153338227
1431,-0.299404224376111,-0.1740278796771825,-0.27024257153338227
1432,-0.2992654896369323,-0.1740278796771825,-0.27024257153338227
1433,-0.2991267548977536,-0.1740278796771825,-0.27024257153338227
1434,-0.2989880201585749,-0.1740278796771825,-0.28586757153338227
1435,-0.2988492854193962,-0.1740278796771825,-0.28586757153338227
1436,-0.2987105506802175,-0.1740278796771825,-0.28586757153338227
1437,-0.2985718159410388,-0.1740278796771825,-0.28586757153338227
1438,-0.29843308120186013,-0.1740278796771825,-0.28586757153338227
1439,-0.29829434646268144,-0.1740278796771825,-0.28586757153338227
1440,-0.29815561172350274,-0.1740278796771825,-0.28586757153338227
1441,-0.29801687698432405,-0.1740278796771825,-0.28586757153338227
1442,-0.29787814224514536,-0.1740278796771825,-0.28586757153338227
1443,-0.29773940750596667,-0.1740278796771825,-0.28586757153338227
1444,-0.297600672766788,-0.1740278796771825,-0.28586757153338227
1445,-0.2974619380276093,-0.1740278796771825,-0.2546175715333823
1446,-0.2973232032884306,-0.1740278796771825,-0.2546175715333823
1447,-0.2971844685492519,-0.1740278796771825,-0.2546175715333823
1448,-0.2970457338100732,-0.1740278796771825,-0.2546175715333823
1449,-0.2969069990708945,-0.1740278796771825,-0.2546175715333823
1450,-0.2967682643317159,-0.1740278796771825,-0.2546175715333823
1451,-0.2966295295925372,-0.1740278796771825,-0.2546175715333823
1452,-0.2964907948533585,-0.1740278796771825,-0.2546175715333823
1453,-0.2963520601141798,-0.1740278796771825,-0.2546175715333823
1454,-0.2962133253750011,-0.1740278796771825,-0.2546175715333823
1455,-0.2960745906358224,-0.1740278796771825,-0.2546175715333823
1456,-0.29593585589664373,-0.1740278796771825,-0.2546175715333823
1457,-0.29579712115746504,-0.1740278796771825,-0.2546175715333823
1458,-0.29565838641828635,-0.1740278796771825,-0.2546175715333823
1459,-0.29551965167910765,-0.1740278796771825,-0.2546175715333823
1460,-0.29538091693992896,-0.1740278796771825,-0.2546175715333823
1461,-0.29524218220075027,-0.1740278796771825,-0.2546175715333823
1462,-0.2951034474615716,-0.1740278796771825,-0.2546175715333823
1463,-0.2949647127223929,-0.1740278796771825,-0.2546175715333823
1464,-0.2948259779832142,-0.1740278796771825,-0.2546175715333823
1465,-0.2946872432440355,-0.1740278796771825,-0.2546175715333823
1466,-0.2945485085048568,-0.1740278796771825,-0.2546175715333823
1467,-0.2944097737656781,-0.1740278796771825,-0.2546175715333823
1468,-0.2942710390264994,-0.1740278796771825,-0.2546175715333823
1469,-0.29413230428732073,-0.1740278796771825,-0.2546175715333823
1470,-0.29399356954814204,-0.1740278796771825,-0.2546175715333823
1471,-0.29385483480896335,-0.1740278796771825,-0.2546175715333823
1472,-0.29371610006978466,-0.1740278796771825,-0.2546175715333823
1473,-0.29357736533060597,-0.1740278796771825,-0.2546175715333823
1474,-0.2934386305914273,-0.1740278796771825,-0.2546175715333823
1475,-0.2932998958522486,-0.1740278796771825,-0.27024257153338227
1476,-0.2931611611130699,-0.1740278796771825,-0.27024257153338227
1477,-0.2930224263738912,-0.1740278796771825,-0.27024257153338227
1478,-0.2928836916347125,-0.1740278796771825,-0.27024257153338227
1479,-0.2927449568955338,-0.1740278796771825,-0.27024257153338227
1480,-0.2926062221563551,-0.1740278796771825,-0.27024257153338227
1481,-0.29246748741717643,-0.1740278796771825,-0.27024257153338227
1482,-0.29232875267799774,-0.1740278796771825,-0.27024257153338227
1483,-0.29219001793881905,-0.1740278796771825,-0.27024257153338227
1484,-0.29205128319964035,-0.1740278796771825,-0.27024257153338227
1485,-0.2919125484604617,-0.1740278796771825,-0.28586757153338227
1486,-0.291773813721283,-0.1740278796771825,-0.28586757153338227
1487,-0.29163507898210433,-0.1740278796771825,-0.28586757153338227
1488,-0.29149634424292564,-0.1740278796771825,-0.28586757153338227
1489,-0.29135760950374695,-0.1740278796771825,-0.28586757153338227
1490,-0.29121887476456826,-0.1740278796771825,-0.28586757153338227
1491,-0.29108014002538957,-0.1740278796771825,-0.28586757153338227
1492,-0.2909414052862109,-0.1740278796771825,-0.28586757153338227
1493,-0.2908026705470322,-0.1740278796771825,-0.28586757153338227
1494,-0.2906639358078535,-0.1740278796771825,-0.28586757153338227
1495,-0.2905252010686748,-0.1740278796771825,-0.2389925715333823
1496,-0.2903864663294961,-0.1740278796771825,-0.2389925715333823
1497,-0.2902477315903174,-0.1740278796771825,-0.2389925715333823
1498,-0.2901089968511387,-0.1740278796771825,-0.2389925715333823
1499,-0.28997026211196003,-0.1740278796771825,-0.2389925715333823
1500,-0.28983152737278134,-0.1740278796771825,-0.2389925715333823
1501,-0.28969279263360265,-0.1740278796771825,-0.2389925715333823
1502,-0.28955405789442396,-0.1740278796771825,-0.2389925715333823
1503,-0.28941532315524526,-0.1740278796771825,-0.2389925715333823
1504,-0.28927658841606657,-0.1740278796771825,-0.2389925715333823
1505,-0.2891378536768879,-0.1740278796771825,-0.2389925715333823
1506,-0.2889991189377092,-0.1740278796771825,-0.2546175715333823
1507,-0.2888603841985305,-0.1740278796771825,-0.2546175715333823
1508,-0.2887216494593518,-0.1740278796771825,-0.2546175715333823
1509,-0.2885829147201731,-0.1740278796771825,-0.2546175715333823
1510,-0.2884441799809944,-0.1740278796771825,-0.2546175715333823
1511,-0.2883054452418157,-0.1740278796771825,-0.2546175715333823
1512,-0.28816671050263704,-0.1740278796771825,-0.2546175715333823
1513,-0.28802797576345834,-0.1740278796771825,-0.2546175715333823
1514,-0.28788924102427965,-0.1740278796771825,-0.2546175715333823
1515,-0.28775050628510096,-0.1740278796771825,-0.2546175715333823
1516,-0.28761177154592227,-0.1740278796771825,-0.28586757153338227
1517,-0.2874730368067436,-0.1740278796771825,-0.28586757153338227
1518,-0.2873343020675649,-0.1740278796771825,-0.28586757153338227
1519,-0.2871955673283862,-0.1740278796771825,-0.28586757153338227
1520,-0.28705683258920756,-0.1740278796771825,-0.28586757153338227
1521,-0.28691809785002886,-0.1740278796771825,-0.28586757153338227
1522,-0.28677936311085017,-0.1740278796771825,-0.28586757153338227
1523,-0.2866406283716715,-0.1740278796771825,-0.28586757153338227
1524,-0.2865018936324928,-0.1740278796771825,-0.28586757153338227
1525,-0.2863631588933141,-0.1740278796771825,-0.28586757153338227
1526,-0.2862244241541354,-0.1740278796771825,-0.28586757153338227
1527,-0.2860856894149567,-0.1740278796771825,-0.28586757153338227
1528,-0.285946954675778,-0.1740278796771825,-0.28586757153338227
1529,-0.28580821993659933,-0.1740278796771825,-0.28586757153338227
1530,-0.28566948519742064,-0.1740278796771825,-0.28586757153338227
1531,-0.28553075045824194,-0.1740278796771825,-0.28586757153338227
1532,-0.28539201571906325,-0.1740278796771825,-0.28586757153338227
1533,-0.28525328097988456,-0.1740278796771825,-0.28586757153338227
1534,-0.28511454624070587,-0.1740278796771825,-0.28586757153338227
1535,-0.2849758115015272,-0.1740278796771825,-0.28586757153338227
1536,-0.2848370767623485,-0.1740278796771825,-0.28586757153338227
1537,-0.2846983420231698,-0.1740278796771825,-0.2546175715333823
1538,-0.2845596072839911,-0.1740278796771825,-0.2546175715333823
1539,-0.2844208725448124,-0.1740278796771825,-0.2546175715333823
1540,-0.2842821378056337,-0.1740278796771825,-0.2546175715333823
1541,-0.284143403066455,-0.1740278796771825,-0.2546175715333823
1542,-0.28400466832727633,-0.1740278796771825,-0.2546175715333823
1543,-0.28386593358809764,-0.1740278796771825,-0.2546175715333823
1544,-0.28372719884891895,-0.1740278796771825,-0.2546175715333823
1545,-0.28358846410974026,-0.1740278796771825,-0.2546175715333823
1546,-0.28344972937056157,-0.1740278796771825,-0.2546175715333823
1547,-0.2833109946313829,-0.1740278796771825,-0.27024257153338227
1548,-0.2831722598922042,-0.1740278796771825,-0.27024257153338227
1549,-0.2830335251530255,-0.1740278796771825,-0.27024257153338227
1550,-0.2828947904138468,-0.1740278796771825,-0.27024257153338227
1551,-0.2827560556746681,-0.1740278796771825,-0.27024257153338227
1552,-0.2826173209354894,-0.1740278796771825,-0.27024257153338227
1553,-0.2824785861963107,-0.1740278796771825,-0.27024257153338227
1554,-0.2823398514571321,-0.1740278796771825,-0.27024257153338227
1555,-0.2822011167179534,-0.1740278796771825,-0.27024257153338227
1556,-0.2820623819787747,-0.1740278796771825,-0.27024257153338227
1557,-0.281923647239596,-0.1740278796771825,-0.2389925715333823
1558,-0.2817849125004173,-0.1740278796771825,-0.2389925715333823
1559,-0.2816461777612386,-0.1740278796771825,-0.2389925715333823
1560,-0.28150744302205993,-0.1740278796771825,-0.2389925715333823
1561,-0.28136870828288124,-0.1740278796771825,-0.2389925715333823
1562,-0.28122997354370255,-0.1740278796771825,-0.2389925715333823
1563,-0.28109123880452386,-0.1740278796771825,-0.2389925715333823
1564,-0.28095250406534517,-0.1740278796771825,-0.2389925715333823
1565,-0.2808137693261665,-0.1740278796771825,-0.2389925715333823
1566,-0.2806750345869878,-0.1740278796771825,-0.2389925715333823
1567,-0.2805362998478091,-0.1740278796771825,-0.27024257153338227
1568,-0.2803975651086304,-0.1740278796771825,-0.27024257153338227
1569,-0.2802588303694517,-0.1740278796771825,-0.27024257153338227
1570,-0.280120095630273,-0.1740278796771825,-0.27024257153338227
1571,-0.2799813608910943,-0.1740278796771825,-0.27024257153338227
1572,-0.27984262615191563,-0.1740278796771825,-0.27024257153338227
1573,-0.27970389141273694,-0.1740278796771825,-0.27024257153338227
1574,-0.27956515667355825,-0.1740278796771825,-0.27024257153338227
1575,-0.27942642193437955,-0.1740278796771825,-0.27024257153338227
1576,-0.27928768719520086,-0.1740278796771825,-0.27024257153338227
1577,-0.27914895245602217,-0.1740278796771825,-0.27024257153338227
1578,-0.2790102177168435,-0.1740278796771825,-0.2546175715333823
1579,-0.2788714829776648,-0.1740278796771825,-0.2546175715333823
1580,-0.2787327482384861,-0.1740278796771825,-0.2546175715333823
1581,-0.2785940134993074,-0.1740278796771825,-0.2546175715333823
1582,-0.2784552787601287,-0.1740278796771825,-0.2546175715333823
1583,-0.27831654402095,-0.1740278796771825,-0.2546175715333823
1584,-0.2781778092817713,-0.1740278796771825,-0.2546175715333823
1585,-0.27803907454259263,-0.1740278796771825,-0.2546175715333823
1586,-0.27790033980341394,-0.1740278796771825,-0.2546175715333823
1587,-0.27776160506423525,-0.1740278796771825,-0.2546175715333823
1588,-0.27762287032505656,-0.1740278796771825,-0.2546175715333823
1589,-0.2774841355858779,-0.1740278796771825,-0.2546175715333823
1590,-0.27734540084669923,-0.1740278796771825,-0.2546175715333823
1591,-0.27720666610752054,-0.1740278796771825,-0.2546175715333823
1592,-0.27706793136834185,-0.1740278796771825,-0.2546175715333823
1593,-0.27692919662916315,-0.1740278796771825,-0.2546175715333823
1594,-0.27679046188998446,-0.1740278796771825,-0.2546175715333823
1595,-0.27665172715080577,-0.1740278796771825,-0.2546175715333823
1596,-0.2765129924116271,-0.1740278796771825,-0.2546175715333823
1597,-0.2763742576724484,-0.1740278796771825,-0.2546175715333823
1598,-0.2762355229332697,-0.1740278796771825,-0.2546175715333823
1599,-0.276096788194091,-0.1740278796771825,-0.2546175715333823
1600,-0.2759580534549123,-0.1740278796771825,-0.2546175715333823
1601,-0.2758193187157336,-0.1740278796771825,-0.2546175715333823
1602,-0.2756805839765549,-0.1740278796771825,-0.2546175715333823
1603,-0.27554184923737624,-0.1740278796771825,-0.2546175715333823
1604,-0.27540311449819754,-0.1740278796771825,-0.2546175715333823
1605,-0.27526437975901885,-0.1740278796771825,-0.2546175715333823
1606,-0.27512564501984016,-0.1740278796771825,-0.2546175715333823
1607,-0.27498691028066147,-0.1740278796771825,-0.2546175715333823
1608,-0.2748481755414828,-0.1740278796771825,-0.27024257153338227
1609,-0.2747094408023041,-0.1740278796771825,-0.27024257153338227
1610,-0.2745707060631254,-0.1740278796771825,-0.27024257153338227
1611,-0.2744319713239467,-0.1740278796771825,-0.27024257153338227
1612,-0.274293236584768,-0.1740278796771825,-0.27024257153338227
1613,-0.2741545018455893,-0.1740278796771825,-0.27024257153338227
1614,-0.2740157671064106,-0.1740278796771825,-0.27024257153338227
1615,-0.27387703236723193,-0.1740278796771825,-0.27024257153338227
1616,-0.27373829762805324,-0.1740278796771825,-0.27024257153338227
1617,-0.27359956288887455,-0.1740278796771825,-0.27024257153338227
1618,-0.27346082814969586,-0.1740278796771825,-0.27024257153338227
1619,-0.27332209341051716,-0.1740278796771825,-0.2546175715333823
1620,-0.27318335867133847,-0.1740278796771825,-0.2546175715333823
1621,-0.2730446239321598,-0.1740278796771825,-0.2546175715333823
1622,-0.2729058891929811,-0.1740278796771825,-0.2546175715333823
1623,-0.2727671544538024,-0.1740278796771825,-0.2546175715333823
1624,-0.27262841971462376,-0.1740278796771825,-0.2546175715333823
1625,-0.27248968497544507,-0.1740278796771825,-0.2546175715333823
1626,-0.2723509502362664,-0.1740278796771825,-0.2546175715333823
1627,-0.2722122154970877,-0.1740278796771825,-0.2546175715333823
1628,-0.272073480757909,-0.1740278796771825,-0.2546175715333823
1629,-0.2719347460187303,-0.1740278796771825,-0.2546175715333823
1630,-0.2717960112795516,-0.1740278796771825,-0.2546175715333823
1631,-0.2716572765403729,-0.1740278796771825,-0.2546175715333823
1632,-0.2715185418011942,-0.1740278796771825,-0.2546175715333823
1633,-0.27137980706201553,-0.1740278796771825,-0.2546175715333823
1634,-0.27124107232283684,-0.1740278796771825,-0.2546175715333823
1635,-0.27110233758365815,-0.1740278796771825,-0.2546175715333823
1636,-0.27096360284447946,-0.1740278796771825,-0.2546175715333823
1637,-0.27082486810530076,-0.1740278796771825,-0.2546175715333823
1638,-0.2706861333661221,-0.1740278796771825,-0.2546175715333823
1639,-0.2705473986269434,-0.1740278796771825,-0.2389925715333823
1640,-0.2704086638877647,-0.1740278796771825,-0.2389925715333823
1641,-0.270269929148586,-0.1740278796771825,-0.2389925715333823
1642,-0.2701311944094073,-0.1740278796771825,-0.2389925715333823
1643,-0.2699924596702286,-0.1740278796771825,-0.2389925715333823
1644,-0.2698537249310499,-0.1740278796771825,-0.2389925715333823
1645,-0.26971499019187123,-0.1740278796771825,-0.2389925715333823
1646,-0.26957625545269254,-0.1740278796771825,-0.2389925715333823
1647,-0.26943752071351385,-0.1740278796771825,-0.2389925715333823
1648,-0.26929878597433515,-0.1740278796771825,-0.2389925715333823
1649,-0.26916005123515646,-0.1740278796771825,-0.2546175715333823
1650,-0.26902131649597777,-0.1740278796771825,-0.2546175715333823
1651,-0.2688825817567991,-0.1740278796771825,-0.2546175715333823
1652,-0.2687438470176204,-0.1740278796771825,-0.2546175715333823
1653,-0.2686051122784417,-0.1740278796771825,-0.2546175715333823
1654,-0.268466377539263,-0.1740278796771825,-0.2546175715333823
1655,-0.2683276428000843,-0.1740278796771825,-0.2546175715333823
1656,-0.2681889080609056,-0.1740278796771825,-0.2546175715333823
1657,-0.2680501733217269,-0.1740278796771825,-0.2546175715333823
1658,-0.2679114385825483,-0.1740278796771825,-0.2546175715333823
1659,-0.2677727038433696,-0.1740278796771825,-0.2389925715333823
1660,-0.2676339691041909,-0.1740278796771825,-0.2389925715333823
1661,-0.2674952343650122,-0.1740278796771825,-0.2389925715333823
1662,-0.2673564996258335,-0.1740278796771825,-0.2389925715333823
1663,-0.26721776488665483,-0.1740278796771825,-0.2389925715333823
1664,-0.26707903014747614,-0.1740278796771825,-0.2389925715333823
1665,-0.26694029540829745,-0.1740278796771825,-0.2389925715333823
1666,-0.26680156066911875,-0.1740278796771825,-0.2389925715333823
1667,-0.26666282592994006,-0.1740278796771825,-0.2389925715333823
1668,-0.26652409119076137,-0.1740278796771825,-0.2389925715333823
1669,-0.2663853564515827,-0.1740278796771825,-0.2389925715333823
1670,-0.266246621712404,-0.1740278796771825,-0.2389925715333823
1671,-0.2661078869732253,-0.1740278796771825,-0.2389925715333823
1672,-0.2659691522340466,-0.1740278796771825,-0.2389925715333823
1673,-0.2658304174948679,-0.1740278796771825,-0.2389925715333823
1674,-0.2656916827556892,-0.1740278796771825,-0.2389925715333823
1675,-0.2655529480165105,-0.1740278796771825,-0.2389925715333823
1676,-0.26541421327733183,-0.1740278796771825,-0.2389925715333823
1677,-0.26527547853815314,-0.1740278796771825,-0.2389925715333823
1678,-0.26513674379897445,-0.1740278796771825,-0.2389925715333823
1679,-0.26499800905979576,-0.1740278796771825,-0.2389925715333823
1680,-0.26485927432061707,-0.1740278796771825,-0.2389925715333823
1681,-0.2647205395814384,-0.1740278796771825,-0.2389925715333823
1682,-0.2645818048422597,-0.1740278796771825,-0.2389925715333823
1683,-0.264443070103081,-0.1740278796771825,-0.2389925715333823
1684,-0.2643043353639023,-0.1740278796771825,-0.2389925715333823
1685,-0.2641656006247236,-0.1740278796771825,-0.2389925715333823
1686,-0.2640268658855449,-0.1740278796771825,-0.2389925715333823
1687,-0.2638881311463662,-0.1740278796771825,-0.2389925715333823
1688,-0.26374939640718753,-0.1740278796771825,-0.2389925715333823
1689,-0.26361066166800884,-0.1740278796771825,-0.2389925715333823
1690,-0.26347192692883015,-0.1740278796771825,-0.2389925715333823
1691,-0.26333319218965145,-0.1740278796771825,-0.2389925715333823
1708,-0.26097470162361375,-0.27929103757191936,-0.19211757153338227
1709,-0.26083596688443506,-0.27929103757191936,-0.19211757153338227
1710,-0.26069723214525636,-0.27929103757191936,-0.1608675715333823
1711,-0.26055849740607767,-0.27929103757191936,-0.1608675715333823
1712,-0.260419762666899,-0.27929103757191936,-0.1608675715333823
1713,-0.2602810279277203,-0.27929103757191936,-0.1608675715333823
1714,-0.2601422931885416,-0.27929103757191936,-0.1608675715333823
1715,-0.2600035584493629,-0.27929103757191936,-0.1608675715333823
1716,-0.2598648237101842,-0.27929103757191936,-0.1608675715333823
1717,-0.2597260889710055,-0.27929103757191936,-0.1608675715333823
1718,-0.25958735423182683,-0.27929103757191936,-0.1608675715333823
1719,-0.25944861949264814,-0.27929103757191936,-0.1608675715333823
1720,-0.25930988475346944,-0.27929103757191936,-0.1608675715333823
1721,-0.25917115001429075,-0.27929103757191936,-0.1452425715333823
1722,-0.25903241527511206,-0.27929103757191936,-0.1452425715333823
1723,-0.25889368053593337,-0.27929103757191936,-0.1452425715333823
1724,-0.2587549457967547,-0.27929103757191936,-0.1452425715333823
1725,-0.258616211057576,-0.27929103757191936,-0.1452425715333823
1726,-0.2584774763183973,-0.27929103757191936,-0.1452425715333823
1727,-0.2583387415792186,-0.27929103757191936,-0.1452425715333823
1728,-0.25820000684003996,-0.27929103757191936,-0.1452425715333823
1729,-0.25806127210086127,-0.27929103757191936,-0.1452425715333823
1730,-0.2579225373616826,-0.27929103757191936,-0.1452425715333823
1731,-0.2577838026225039,-0.27929103757191936,-0.05149257153338235
1732,-0.2576450678833252,-0.27929103757191936,-0.05149257153338235
1733,-0.2575063331441465,-0.27929103757191936,-0.05149257153338235
1734,-0.2573675984049678,-0.27929103757191936,-0.05149257153338235
1735,-0.2572288636657891,-0.27929103757191936,-0.05149257153338235
1736,-0.25709012892661043,-0.27929103757191936,-0.05149257153338235
1737,-0.25695139418743174,-0.27929103757191936,-0.05149257153338235
1738,-0.25681265944825304,-0.27929103757191936,-0.05149257153338235
1739,-0.25667392470907435,-0.27929103757191936,-0.05149257153338235
1740,-0.25653518996989566,-0.27929103757191936,-0.05149257153338235
1741,-0.25639645523071697,-0.27929103757191936,-0.020242571533382325
1742,-0.2562577204915383,-0.27929103757191936,-0.020242571533382325
1743,-0.2561189857523596,-0.27929103757191936,-0.020242571533382325
1744,-0.2559802510131809,-0.27929103757191936,-0.020242571533382325
1745,-0.2558415162740022,-0.27929103757191936,-0.020242571533382325
1746,-0.2557027815348235,-0.27929103757191936,-0.020242571533382325
1747,-0.2555640467956448,-0.27929103757191936,-0.020242571533382325
1748,-0.2554253120564661,-0.27929103757191936,-0.020242571533382325
1749,-0.25528657731728743,-0.27929103757191936,-0.020242571533382325
1750,-0.25514784257810874,-0.27929103757191936,-0.020242571533382325
1751,-0.25500910783893005,-0.27929103757191936,-0.020242571533382325
1752,-0.25487037309975136,-0.27929103757191936,0.0891324284666177
1753,-0.25473163836057267,-0.27929103757191936,0.0891324284666177
1754,-0.254592903621394,-0.27929103757191936,0.0891324284666177
1755,-0.2544541688822153,-0.27929103757191936,0.0891324284666177
1756,-0.2543154341430366,-0.27929103757191936,0.0891324284666177
1757,-0.2541766994038579,-0.27929103757191936,0.0891324284666177
1758,-0.2540379646646792,-0.27929103757191936,0.0891324284666177
1759,-0.2538992299255005,-0.27929103757191936,0.0891324284666177
1760,-0.2537604951863218,-0.27929103757191936,0.0891324284666177
1761,-0.25362176044714313,-0.27929103757191936,0.0891324284666177
1762,-0.2534830257079645,-0.27929103757191936,0.15163242846661776
1763,-0.2533442909687858,-0.27929103757191936,0.15163242846661776
1764,-0.2532055562296071,-0.27929103757191936,0.15163242846661776
1765,-0.2530668214904284,-0.27929103757191936,0.15163242846661776
1766,-0.2529280867512497,-0.27929103757191936,0.15163242846661776
1767,-0.25278935201207103,-0.27929103757191936,0.15163242846661776
1768,-0.25265061727289234,-0.27929103757191936,0.15163242846661776
1769,-0.25251188253371365,-0.27929103757191936,0.15163242846661776
1770,-0.25237314779453496,-0.27929103757191936,0.15163242846661776
1771,-0.25223441305535627,-0.27929103757191936,0.15163242846661776
1772,-0.2520956783161776,-0.27929103757191936,0.15163242846661776
1773,-0.2519569435769989,-0.27929103757191936,0.15163242846661776
1774,-0.2518182088378202,-0.27929103757191936,0.15163242846661776
1775,-0.2516794740986415,-0.27929103757191936,0.15163242846661776
1776,-0.2515407393594628,-0.27929103757191936,0.15163242846661776
1777,-0.2514020046202841,-0.27929103757191936,0.15163242846661776
1778,-0.2512632698811054,-0.27929103757191936,0.15163242846661776
1779,-0.25112453514192673,-0.27929103757191936,0.15163242846661776
1780,-0.25098580040274804,-0.27929103757191936,0.15163242846661776
1781,-0.25084706566356935,-0.27929103757191936,0.15163242846661776
1782,-0.25070833092439065,-0.27929103757191936,0.21413242846661767
1783,-0.25056959618521196,-0.27929103757191936,0.21413242846661767
1784,-0.25043086144603327,-0.27929103757191936,0.21413242846661767
1785,-0.2502921267068546,-0.27929103757191936,0.21413242846661767
1786,-0.2501533919676759,-0.27929103757191936,0.21413242846661767
1787,-0.2500146572284972,-0.27929103757191936,0.21413242846661767
1788,-0.24987592248931853,-0.27929103757191936,0.21413242846661767
1789,-0.24973718775013984,-0.27929103757191936,0.21413242846661767
1790,-0.24959845301096115,-0.27929103757191936,0.21413242846661767
1791,-0.24945971827178245,-0.27929103757191936,0.21413242846661767
1792,-0.24932098353260376,-0.27929103757191936,0.21413242846661767
1793,-0.24918224879342507,-0.27929103757191936,0.13600742846661767
1794,-0.24904351405424638,-0.27929103757191936,0.13600742846661767
1795,-0.2489047793150677,-0.27929103757191936,0.13600742846661767
1796,-0.248766044575889,-0.27929103757191936,0.13600742846661767
1797,-0.2486273098367103,-0.27929103757191936,0.13600742846661767
1798,-0.2484885750975316,-0.27929103757191936,0.13600742846661767
1799,-0.24834984035835292,-0.27929103757191936,0.13600742846661767
1800,-0.24821110561917423,-0.27929103757191936,0.13600742846661767
1801,-0.24807237087999554,-0.27929103757191936,0.13600742846661767
1802,-0.24793363614081684,-0.27929103757191936,0.13600742846661767
1803,-0.24779490140163815,-0.27929103757191936,0.1672574284666177
1804,-0.24765616666245946,-0.27929103757191936,0.1672574284666177
1805,-0.24751743192328077,-0.27929103757191936,0.1672574284666177
1806,-0.2473786971841021,-0.27929103757191936,0.1672574284666177
1807,-0.2472399624449234,-0.27929103757191936,0.1672574284666177
1808,-0.24710122770574472,-0.27929103757191936,0.1672574284666177
1809,-0.24696249296656603,-0.27929103757191936,0.1672574284666177
1810,-0.24682375822738734,-0.27929103757191936,0.1672574284666177
1811,-0.24668502348820864,-0.27929103757191936,0.1672574284666177
1812,-0.24654628874902995,-0.27929103757191936,0.1672574284666177
1813,-0.24640755400985126,-0.27929103757191936,0.10475742846661765
1814,-0.24626881927067257,-0.27929103757191936,0.10475742846661765
1815,-0.24613008453149388,-0.27929103757191936,0.10475742846661765
1816,-0.24599134979231518,-0.27929103757191936,0.10475742846661765
1817,-0.2458526150531365,-0.27929103757191936,0.10475742846661765
1818,-0.2457138803139578,-0.27929103757191936,0.10475742846661765
1819,-0.2455751455747791,-0.27929103757191936,0.10475742846661765
1820,-0.24543641083560042,-0.27929103757191936,0.10475742846661765
1821,-0.24529767609642172,-0.27929103757191936,0.10475742846661765
1822,-0.24515894135724303,-0.27929103757191936,0.10475742846661765
1823,-0.24502020661806437,-0.27929103757191936,0.10475742846661765
1824,-0.24488147187888568,-0.27929103757191936,0.057882428466617675
1825,-0.24474273713970698,-0.27929103757191936,0.057882428466617675
1826,-0.2446040024005283,-0.27929103757191936,0.057882428466617675
1827,-0.2444652676613496,-0.27929103757191936,0.057882428466617675
1828,-0.2443265329221709,-0.27929103757191936,0.057882428466617675
1829,-0.24418779818299222,-0.27929103757191936,0.057882428466617675
1830,-0.24404906344381352,-0.27929103757191936,0.057882428466617675
1831,-0.24391032870463483,-0.27929103757191936,0.057882428466617675
1832,-0.24377159396545614,-0.27929103757191936,0.057882428466617675
1833,-0.24363285922627745,-0.27929103757191936,0.057882428466617675
1834,-0.24349412448709876,-0.27929103757191936,0.026632428466617647
1835,-0.24335538974792006,-0.27929103757191936,0.026632428466617647
1836,-0.24321665500874137,-0.27929103757191936,0.026632428466617647
1837,-0.24307792026956268,-0.27929103757191936,0.026632428466617647
1838,-0.242939185530384,-0.27929103757191936,0.026632428466617647
1839,-0.2428004507912053,-0.27929103757191936,0.026632428466617647
1840,-0.24266171605202663,-0.27929103757191936,0.026632428466617647
1841,-0.24252298131284794,-0.27929103757191936,0.026632428466617647
1842,-0.24238424657366925,-0.27929103757191936,0.026632428466617647
1843,-0.24224551183449056,-0.27929103757191936,0.026632428466617647
1844,-0.24210677709531186,-0.27929103757191936,0.026632428466617647
1845,-0.24196804235613317,-0.27929103757191936,0.026632428466617647
1846,-0.24182930761695448,-0.27929103757191936,0.026632428466617647
1847,-0.2416905728777758,-0.27929103757191936,0.026632428466617647
1848,-0.2415518381385971,-0.27929103757191936,0.026632428466617647
1849,-0.2414131033994184,-0.27929103757191936,0.026632428466617647
1850,-0.2412743686602397,-0.27929103757191936,0.026632428466617647
1851,-0.24113563392106102,-0.27929103757191936,0.026632428466617647
1852,-0.24099689918188233,-0.27929103757191936,0.026632428466617647
1853,-0.24085816444270364,-0.27929103757191936,0.026632428466617647
1854,-0.24071942970352495,-0.27929103757191936,0.026632428466617647
1855,-0.24058069496434625,-0.27929103757191936,0.026632428466617647
1856,-0.24044196022516756,-0.27929103757191936,0.026632428466617647
1857,-0.24030322548598887,-0.27929103757191936,0.026632428466617647
1858,-0.2401644907468102,-0.27929103757191936,0.026632428466617647
1859,-0.2400257560076315,-0.27929103757191936,0.026632428466617647
1860,-0.23988702126845282,-0.27929103757191936,0.026632428466617647
1861,-0.23974828652927413,-0.27929103757191936,0.026632428466617647
1862,-0.23960955179009544,-0.27929103757191936,0.026632428466617647
1863,-0.23947081705091675,-0.27929103757191936,0.026632428466617647
1864,-0.23933208231173805,-0.27929103757191936,0.026632428466617647
1865,-0.23919334757255936,-0.27929103757191936,0.026632428466617647
1866,-0.23905461283338067,-0.27929103757191936,0.026632428466617647
1867,-0.23891587809420198,-0.27929103757191936,0.026632428466617647
1868,-0.23877714335502329,-0.27929103757191936,0.026632428466617647
1869,-0.2386384086158446,-0.27929103757191936,0.026632428466617647
1870,-0.2384996738766659,-0.27929103757191936,0.026632428466617647
1871,-0.2383609391374872,-0.27929103757191936,0.026632428466617647
1872,-0.23822220439830852,-0.27929103757191936,0.026632428466617647
1873,-0.23808346965912983,-0.27929103757191936,0.026632428466617647
1874,-0.23794473491995113,-0.27929103757191936,0.026632428466617647
1875,-0.23780600018077247,-0.27929103757191936,0.011007428466617702
1876,-0.23766726544159378,-0.27929103757191936,0.011007428466617702
1877,-0.23752853070241509,-0.27929103757191936,0.011007428466617702
1878,-0.2373897959632364,-0.27929103757191936,0.011007428466617702
1879,-0.2372510612240577,-0.27929103757191936,0.011007428466617702
1880,-0.237112326484879,-0.27929103757191936,0.011007428466617702
1881,-0.23697359174570032,-0.27929103757191936,0.011007428466617702
1882,-0.23683485700652163,-0.27929103757191936,0.011007428466617702
1883,-0.23669612226734293,-0.27929103757191936,0.011007428466617702
1884,-0.23655738752816424,-0.27929103757191936,0.011007428466617702
1885,-0.23641865278898555,-0.27929103757191936,-0.004617571533382242
1886,-0.23627991804980686,-0.27929103757191936,-0.004617571533382242
1887,-0.23614118331062817,-0.27929103757191936,-0.004617571533382242
1888,-0.23600244857144947,-0.27929103757191936,-0.004617571533382242
1889,-0.23586371383227078,-0.27929103757191936,-0.004617571533382242
1890,-0.2357249790930921,-0.27929103757191936,-0.004617571533382242
1891,-0.2355862443539134,-0.27929103757191936,-0.004617571533382242
1892,-0.23544750961473473,-0.27929103757191936,-0.004617571533382242
1893,-0.23530877487555604,-0.27929103757191936,-0.004617571533382242
1894,-0.23517004013637735,-0.27929103757191936,-0.004617571533382242
1895,-0.23503130539719866,-0.27929103757191936,-0.004617571533382242
1896,-0.23489257065801997,-0.27929103757191936,-0.004617571533382242
1897,-0.23475383591884127,-0.27929103757191936,-0.004617571533382242
1898,-0.23461510117966258,-0.27929103757191936,-0.004617571533382242
1899,-0.2344763664404839,-0.27929103757191936,-0.004617571533382242
1900,-0.2343376317013052,-0.27929103757191936,-0.004617571533382242
1901,-0.2341988969621265,-0.27929103757191936,-0.004617571533382242
1902,-0.23406016222294782,-0.27929103757191936,-0.004617571533382242
1903,-0.23392142748376912,-0.27929103757191936,-0.004617571533382242
1904,-0.23378269274459043,-0.27929103757191936,-0.004617571533382242
